time,ecg
1.9,-68864.85714285713
3.9,-86390.71428571428
5.9,-103885.71428571428
7.9,-121209.85714285713
9.9,-121403.71428571429
11.9,-121330.0
13.9,-121140.71428571428
15.9,-120845.57142857142
17.9,-120496.28571428571
19.9,-120279.14285714286
21.9,-120323.42857142855
23.9,-120575.14285714284
25.9,-120889.2857142857
27.9,-121146.2857142857
29.9,-121271.42857142855
31.9,-121228.85714285713
33.9,-121034.42857142855
35.9,-120749.99999999999
37.9,-120462.14285714284
39.9,-120284.2857142857
41.9,-120318.42857142855
43.9,-120560.5714285714
45.9,-120887.71428571426
47.9,-121164.85714285713
49.9,-121308.99999999999
51.9,-121280.2857142857
53.9,-121096.71428571428
55.9,-120831.42857142857
57.9,-120559.85714285713
59.9,-120355.42857142857
61.9,-120297.42857142858
63.88,-120404.42857142857
65.85,-120603.85714285713
67.83,-120797.14285714287
69.8,-120895.28571428571
71.8,-120829.14285714286
73.8,-120620.14285714286
75.8,-120382.0
77.8,-120200.0
79.8,-120094.42857142858
81.8,-120100.28571428571
83.8,-120257.14285714284
85.8,-120521.71428571426
87.8,-120773.57142857142
89.8,-120898.71428571426
91.8,-120849.28571428571
93.8,-120665.42857142858
95.8,-120439.14285714286
97.8,-120241.42857142857
99.8,-120112.71428571429
101.8,-120095.5714285714
103.8,-120205.99999999999
105.8,-120398.5714285714
107.8,-120595.85714285713
109.8,-120715.28571428571
111.8,-120681.71428571429
113.8,-120493.57142857142
115.8,-120256.14285714286
117.8,-120081.85714285714
119.8,-119998.0
121.8,-119996.42857142857
123.8,-120092.71428571428
125.8,-120275.42857142855
127.8,-120461.2857142857
129.8,-120555.99999999999
131.8,-120527.85714285713
133.8,-120399.5714285714
135.8,-120213.14285714286
137.8,-120030.42857142857
139.8,-119935.71428571429
141.8,-119979.71428571428
143.78,-120123.14285714286
145.75,-120279.71428571428
147.73,-120405.42857142857
149.7,-120485.28571428571
151.7,-120476.28571428571
153.7,-120350.57142857142
155.7,-120163.57142857142
157.7,-120004.14285714286
159.7,-119921.14285714286
161.7,-119934.71428571428
163.7,-120046.99999999999
165.7,-120208.85714285713
167.7,-120338.99999999999
169.7,-120388.85714285713
171.7,-120357.85714285713
173.7,-120264.28571428571
175.7,-120128.2857142857
177.7,-119980.42857142857
179.7,-119875.85714285713
181.7,-119876.0
183.7,-119990.99999999999
185.7,-120157.85714285713
187.7,-120294.85714285713
189.7,-120363.14285714284
191.7,-120371.2857142857
193.7,-120340.57142857142
195.7,-120276.85714285713
197.7,-120185.42857142858
199.7,-120109.99999999999
201.7,-120119.71428571428
203.7,-120236.99999999999
205.7,-120403.28571428571
207.7,-120535.14285714286
209.7,-120596.28571428572
211.7,-120603.71428571429
213.7,-120583.14285714287
215.7,-120540.42857142858
217.7,-120481.85714285712
219.7,-120441.28571428571
221.7,-120459.99999999999
223.68,-120545.2857142857
225.65,-120665.5714285714
227.63,-120769.2857142857
229.6,-120804.14285714283
231.6,-120749.99999999997
233.6,-120641.28571428568
235.6,-120533.85714285712
237.6,-120455.42857142855
239.6,-120409.57142857142
241.6,-120409.85714285713
243.6,-120479.99999999997
245.6,-120618.71428571426
247.6,-120774.57142857142
249.6,-120867.28571428571
251.6,-120851.57142857143
253.6,-120759.14285714286
255.6,-120662.71428571429
257.6,-120604.0
259.6,-120573.57142857142
261.6,-120557.14285714286
263.6,-120576.14285714286
265.6,-120660.28571428572
267.6,-120782.14285714286
269.6,-120855.85714285714
271.6,-120822.0
273.6,-120710.85714285713
275.6,-120596.0
277.6,-120515.85714285713
279.6,-120464.42857142855
281.6,-120434.71428571426
283.6,-120436.42857142855
285.6,-120479.99999999997
287.6,-120551.14285714284
289.6,-120605.71428571426
291.6,-120598.14285714284
293.6,-120526.28571428571
295.6,-120436.28571428571
297.6,-120380.71428571429
299.6,-120380.85714285714
301.5,-120424.14285714286
303.5,-120484.57142857143
305.5,-120548.14285714287
307.5,-120618.57142857143
309.5,-120689.71428571429
311.5,-120722.71428571428
313.5,-120679.42857142855
315.5,-120578.99999999999
317.5,-120496.2857142857
319.5,-120490.5714285714
321.5,-120544.71428571426
323.5,-120595.2857142857
325.5,-120621.42857142857
327.5,-120664.14285714284
329.5,-120741.99999999999
331.5,-120794.42857142857
333.5,-120753.85714285713
335.5,-120642.14285714284
337.5,-120549.5714285714
339.5,-120534.71428571428
341.5,-120576.2857142857
343.5,-120619.71428571429
345.5,-120647.42857142857
347.5,-120686.28571428571
349.5,-120751.85714285713
351.5,-120811.85714285713
353.5,-120818.57142857142
355.5,-120765.85714285713
357.5,-120699.14285714284
359.5,-120673.71428571428
361.5,-120710.42857142857
363.5,-120784.42857142857
365.5,-120852.42857142857
367.5,-120892.28571428571
369.5,-120913.28571428571
371.5,-120930.57142857142
373.48,-120937.28571428571
375.45,-120907.0
377.43,-120831.2857142857
379.4,-120750.57142857143
381.4,-120726.57142857142
383.4,-120771.0
385.4,-120823.28571428571
387.4,-120824.14285714284
389.4,-120786.42857142857
391.4,-120762.14285714284
393.4,-120761.85714285713
395.4,-120741.85714285713
397.4,-120672.42857142857
399.4,-120594.71428571428
401.4,-120581.14285714286
403.4,-120642.28571428571
405.4,-120712.0
407.4,-120735.0
409.4,-120725.85714285714
411.4,-120722.85714285714
413.4,-120726.85714285714
415.4,-120711.85714285714
417.4,-120669.42857142858
419.4,-120624.71428571428
421.4,-120617.28571428572
423.4,-120666.28571428572
425.4,-120747.57142857142
427.4,-120811.71428571429
429.4,-120831.42857142857
431.4,-120822.85714285714
433.4,-120816.71428571429
435.4,-120817.42857142858
437.4,-120803.85714285714
439.4,-120769.42857142858
441.4,-120743.57142857143
443.4,-120761.14285714286
445.4,-120820.14285714286
447.4,-120878.71428571429
449.4,-120892.28571428571
451.4,-120855.99999999999
453.38,-120808.85714285714
455.35,-120786.42857142858
457.33,-120777.14285714287
459.3,-120748.42857142858
461.3,-120709.85714285714
463.3,-120712.85714285713
465.3,-120778.0
467.3,-120854.85714285713
469.3,-120874.99999999999
471.3,-120826.71428571428
473.3,-120755.28571428571
475.3,-120699.0
477.3,-120651.0
479.3,-120587.14285714286
481.3,-120515.57142857142
483.3,-120479.85714285713
485.3,-120509.42857142857
487.3,-120580.99999999999
489.3,-120642.5714285714
491.3,-120669.5714285714
493.3,-120682.42857142855
495.3,-120711.2857142857
497.3,-120761.28571428571
499.3,-120813.14285714286
501.3,-120847.57142857142
503.3,-120863.14285714286
505.3,-120874.14285714286
507.3,-120890.57142857142
509.3,-120898.42857142857
511.3,-120865.14285714286
513.3,-120782.0
515.3,-120694.57142857142
517.3,-120666.57142857142
519.3,-120704.71428571428
521.3,-120752.85714285713
523.3,-120774.42857142855
525.3,-120802.85714285713
527.3,-120878.14285714284
529.3,-120969.71428571428
531.3,-121005.14285714284
533.28,-120960.71428571428
535.25,-120888.42857142857
537.23,-120851.28571428571
539.2,-120854.57142857142
541.2,-120855.85714285713
543.2,-120834.42857142855
545.2,-120821.14285714284
547.2,-120848.2857142857
549.2,-120899.2857142857
551.2,-120933.28571428571
553.2,-120938.85714285713
555.2,-120939.28571428571
557.2,-120957.28571428571
559.2,-120992.42857142857
561.2,-121029.42857142855
563.2,-121053.71428571426
565.2,-121053.57142857142
567.2,-121012.5714285714
569.2,-120915.28571428571
571.2,-120753.99999999999
573.2,-120518.42857142855
575.2,-120194.14285714286
577.2,-119795.14285714287
579.2,-119381.42857142858
581.2,-119017.14285714286
583.2,-118716.42857142857
585.2,-118462.14285714286
587.2,-118275.71428571428
589.2,-118231.85714285714
591.2,-118379.71428571428
593.2,-118676.42857142857
595.2,-119040.42857142857
597.2,-119444.85714285713
599.2,-119904.14285714284
601.2,-120386.42857142855
603.2,-120802.2857142857
605.2,-121080.71428571428
607.2,-121218.28571428571
609.2,-121253.85714285714
611.2,-121228.0
613.18,-121163.57142857143
615.15,-121065.14285714286
617.13,-120936.2857142857
619.1,-120810.28571428571
621.1,-120742.14285714286
623.1,-120745.85714285713
625.1,-120768.71428571428
627.1,-120766.57142857142
629.1,-120762.99999999999
631.1,-120788.85714285713
633.1,-120815.71428571428
635.1,-120806.0
637.1,-120774.57142857143
639.1,-120752.14285714287
641.1,-120737.14285714287
643.1,-120722.14285714286
645.1,-120725.85714285713
647.1,-120759.42857142855
649.1,-120792.85714285714
651.1,-120792.85714285714
653.1,-120773.14285714286
655.1,-120765.14285714286
657.1,-120764.0
659.1,-120748.85714285713
661.1,-120728.42857142857
663.1,-120719.14285714286
665.1,-120718.57142857142
667.1,-120723.71428571428
669.1,-120732.71428571428
671.1,-120725.28571428571
673.1,-120689.42857142858
675.1,-120653.14285714284
677.1,-120650.71428571428
679.1,-120674.71428571426
681.1,-120695.71428571428
683.1,-120707.2857142857
685.1,-120725.5714285714
687.1,-120757.71428571428
689.1,-120786.85714285713
691.1,-120787.42857142857
693.08,-120748.71428571428
695.05,-120685.42857142857
697.03,-120631.71428571429
699.0,-120616.57142857142
701.0,-120630.42857142855
703.0,-120634.28571428568
705.0,-120616.8571428571
707.0,-120615.42857142855
709.0,-120656.71428571428
711.0,-120705.85714285714
713.0,-120709.28571428571
715.0,-120668.42857142857
717.0,-120635.42857142858
719.0,-120639.57142857142
721.0,-120652.42857142857
723.0,-120633.7142857143
725.0,-120586.71428571429
727.0,-120549.00000000001
729.0,-120541.00000000001
731.0,-120543.85714285714
733.0,-120529.57142857142
735.0,-120497.42857142857
737.0,-120470.71428571428
739.0,-120466.57142857142
741.0,-120480.14285714284
743.0,-120492.99999999997
745.0,-120488.42857142857
747.0,-120467.28571428572
749.0,-120447.71428571429
751.0,-120440.57142857142
753.0,-120432.28571428571
755.0,-120401.42857142855
757.0,-120345.71428571428
759.0,-120291.2857142857
761.0,-120270.85714285713
763.0,-120284.99999999999
765.0,-120292.42857142855
767.0,-120260.85714285713
769.0,-120215.28571428571
771.0,-120204.71428571428
772.98,-120231.28571428571
774.95,-120245.14285714286
776.93,-120212.14285714286
778.9,-120161.28571428571
780.9,-120149.71428571428
782.9,-120187.2857142857
784.9,-120221.57142857142
786.9,-120205.28571428571
788.9,-120156.42857142857
790.9,-120129.42857142857
792.9,-120142.99999999999
794.9,-120160.14285714286
796.9,-120141.71428571428
798.9,-120099.57142857142
800.9,-120082.2857142857
802.9,-120112.14285714284
804.9,-120158.14285714284
806.9,-120175.85714285713
808.9,-120154.85714285713
810.9,-120121.14285714284
812.9,-120107.99999999999
814.9,-120123.14285714284
816.9,-120139.71428571426
818.9,-120129.42857142855
820.9,-120105.57142857143
822.9,-120112.0
824.9,-120162.42857142858
826.9,-120213.42857142858
828.9,-120213.14285714286
830.9,-120164.85714285714
832.9,-120121.57142857142
834.9,-120119.28571428571
836.9,-120135.71428571428
838.9,-120126.57142857142
840.9,-120091.0
842.9,-120077.85714285714
844.9,-120120.42857142858
846.9,-120187.14285714286
848.9,-120217.99999999997
850.9,-120198.2857142857
852.88,-120173.14285714284
854.85,-120189.42857142855
856.83,-120241.42857142855
858.8,-120280.99999999999
860.8,-120281.28571428571
862.8,-120278.0
864.8,-120327.85714285713
866.8,-120427.28571428571
868.8,-120510.14285714286
870.8,-120534.85714285714
872.8,-120535.14285714286
874.8,-120563.71428571428
876.8,-120619.14285714284
878.8,-120656.14285714284
880.8,-120649.57142857142
882.8,-120620.99999999997
884.8,-120605.5714285714
886.8,-120613.99999999999
888.8,-120630.14285714284
890.8,-120632.28571428571
892.8,-120614.71428571429
894.8,-120598.71428571428
896.8,-120615.57142857142
898.8,-120665.85714285714
900.8,-120710.42857142857
902.8,-120718.71428571429
904.8,-120708.57142857142
906.8,-120718.57142857142
908.8,-120754.28571428571
910.8,-120779.85714285716
912.8,-120763.0
914.8,-120719.0
916.8,-120698.71428571428
918.8,-120727.0
920.8,-120767.57142857142
922.8,-120770.85714285713
924.8,-120742.85714285713
926.8,-120735.42857142855
928.8,-120770.42857142855
930.7,-120805.2857142857
932.7,-120791.14285714284
934.7,-120740.42857142855
936.7,-120704.71428571426
938.7,-120702.42857142857
940.7,-120705.42857142855
942.7,-120688.85714285713
944.7,-120658.85714285713
946.7,-120633.71428571426
948.7,-120627.14285714284
950.7,-120642.99999999999
952.7,-120660.42857142855
954.7,-120644.71428571429
956.7,-120596.0
958.7,-120561.85714285714
960.7,-120579.28571428571
962.7,-120623.71428571428
964.7,-120641.85714285713
966.7,-120625.85714285714
968.7,-120624.57142857142
970.7,-120672.71428571426
972.7,-120736.14285714284
974.7,-120752.2857142857
976.7,-120717.42857142855
978.7,-120697.14285714284
980.7,-120738.0
982.7,-120804.14285714284
984.7,-120829.71428571428
986.7,-120810.14285714286
988.7,-120801.7142857143
990.7,-120837.14285714286
992.7,-120883.28571428571
994.7,-120890.99999999999
996.7,-120858.28571428571
998.7,-120827.57142857142
1000.7,-120833.85714285713
1002.7,-120867.2857142857
1004.7,-120889.99999999999
1006.7,-120883.57142857142
1008.7,-120868.71428571429
1010.6,-120873.99999999999
1012.6,-120898.57142857143
1014.6,-120916.57142857143
1016.6,-120909.85714285714
1018.6,-120885.85714285713
1020.6,-120866.42857142855
1022.6,-120870.57142857142
1024.6,-120899.71428571429
1026.6,-120932.71428571429
1028.6,-120944.0
1030.6,-120939.42857142857
1032.6,-120953.99999999999
1034.6,-120999.28571428571
1036.6,-121032.85714285713
1038.6,-121011.57142857142
1040.6,-120958.2857142857
1042.6,-120937.85714285713
1044.6,-120968.99999999999
1046.6,-120999.57142857142
1048.6,-120981.42857142857
1050.6,-120938.28571428571
1052.6,-120930.85714285713
1054.6,-120969.85714285714
1056.6,-121000.99999999999
1058.6,-120981.2857142857
1060.6,-120936.85714285713
1062.6,-120920.14285714284
1064.6,-120935.57142857142
1066.6,-120939.42857142857
1068.6,-120904.99999999999
1070.6,-120853.42857142857
1072.6,-120818.85714285714
1074.6,-120807.42857142858
1076.6,-120805.57142857143
1078.6,-120809.0
1080.6,-120823.14285714287
1082.6,-120845.99999999999
1084.6,-120876.71428571429
1086.6,-120923.57142857142
1088.6,-120979.57142857142
1090.5,-121009.14285714284
1092.5,-120991.71428571426
1094.5,-120960.42857142855
1096.5,-120959.85714285713
1098.5,-120981.2857142857
1100.5,-120976.57142857143
1102.5,-120927.99999999999
1104.5,-120875.57142857142
1106.5,-120866.71428571428
1108.5,-120894.0
1110.5,-120905.42857142858
1112.5,-120876.14285714284
1114.5,-120842.42857142857
1116.5,-120849.42857142855
1118.5,-120887.5714285714
1120.5,-120903.71428571428
1122.5,-120864.99999999999
1124.5,-120800.14285714286
1126.5,-120766.28571428571
1128.5,-120774.14285714286
1130.5,-120773.14285714286
1132.5,-120735.28571428571
1134.5,-120705.85714285712
1136.5,-120727.71428571428
1138.5,-120774.85714285714
1140.5,-120811.28571428571
1142.5,-120849.0
1144.5,-120901.0
1146.5,-120943.14285714286
1148.5,-120963.0
1150.5,-120991.28571428571
1152.5,-121043.42857142857
1154.5,-121079.42857142857
1156.5,-121064.14285714284
1158.5,-121028.99999999999
1160.5,-121024.5714285714
1162.5,-121046.71428571426
1164.5,-121061.99999999997
1166.5,-121068.42857142855
1168.5,-121080.71428571428
1170.4,-121097.42857142855
1172.4,-121119.5714285714
1174.4,-121151.85714285713
1176.4,-121171.2857142857
1178.4,-121149.42857142855
1180.4,-121108.57142857142
1182.4,-121096.2857142857
1184.4,-121111.42857142857
1186.4,-121111.71428571428
1188.4,-121086.42857142857
1190.4,-121069.28571428571
1192.4,-121081.71428571429
1194.4,-121105.14285714286
1196.4,-121114.14285714286
1198.4,-121106.28571428571
1200.4,-121100.42857142857
1202.4,-121121.99999999999
1204.4,-121178.42857142857
1206.4,-121240.99999999999
1208.4,-121270.99999999999
1210.4,-121264.71428571428
1212.4,-121250.42857142857
1214.4,-121234.85714285713
1216.4,-121177.2857142857
1218.4,-121028.99999999999
1220.4,-120788.42857142857
1222.4,-120497.42857142857
1224.4,-120186.42857142857
1226.4,-119847.14285714286
1228.4,-119472.0
1230.4,-119093.85714285713
1232.4,-118777.42857142857
1234.4,-118587.14285714284
1236.4,-118559.85714285714
1238.4,-118687.14285714284
1240.4,-118934.85714285713
1242.38,-119290.14285714283
1244.35,-119758.85714285713
1246.33,-120297.85714285712
1248.3,-120797.28571428571
1250.3,-121165.85714285713
1252.3,-121401.28571428571
1254.3,-121549.14285714283
1256.3,-121626.28571428571
1258.3,-121620.42857142855
1260.3,-121544.71428571429
1262.3,-121446.71428571429
1264.3,-121364.14285714286
1266.3,-121305.14285714287
1268.3,-121268.71428571429
1270.3,-121245.71428571429
1272.3,-121209.57142857143
1274.3,-121154.42857142858
1276.3,-121122.42857142858
1278.3,-121143.85714285713
1280.3,-121178.14285714286
1282.3,-121170.0
1284.3,-121133.71428571428
1286.3,-121129.57142857143
1288.3,-121170.42857142857
1290.3,-121202.0
1292.3,-121175.85714285714
1294.3,-121115.85714285713
1296.3,-121087.28571428571
1298.3,-121110.42857142855
1300.3,-121137.71428571428
1302.3,-121125.99999999999
1304.3,-121094.14285714286
1306.3,-121091.14285714286
1308.3,-121130.0
1310.3,-121175.28571428571
1312.3,-121186.28571428572
1314.3,-121158.5714285714
1316.3,-121122.14285714286
1318.3,-121108.42857142857
1320.3,-121119.85714285713
1322.28,-121125.85714285713
1324.25,-121096.85714285713
1326.23,-121047.85714285714
1328.2,-121031.42857142855
1330.2,-121068.71428571426
1332.2,-121112.85714285714
1334.2,-121109.2857142857
1336.2,-121072.42857142858
1338.2,-121062.71428571429
1340.2,-121099.57142857142
1342.2,-121138.14285714284
1344.2,-121134.42857142857
1346.2,-121098.42857142857
1348.2,-121073.85714285713
1350.2,-121086.14285714284
1352.2,-121118.5714285714
1354.2,-121131.5714285714
1356.2,-121106.99999999999
1358.2,-121076.85714285713
1360.2,-121087.14285714284
1362.2,-121131.28571428571
1364.2,-121152.85714285713
1366.2,-121123.14285714284
1368.2,-121080.85714285713
1370.2,-121074.85714285714
1372.2,-121096.57142857142
1374.2,-121099.14285714284
1376.2,-121066.42857142857
1378.2,-121028.57142857142
1380.2,-121012.71428571429
1382.2,-121009.71428571429
1384.2,-120994.57142857143
1386.2,-120958.28571428572
1388.2,-120911.85714285713
1390.2,-120874.85714285714
1392.2,-120863.42857142858
1394.2,-120876.28571428571
1396.2,-120891.0
1398.2,-120886.14285714286
1400.2,-120869.14285714284
1402.18,-120866.42857142857
1404.15,-120882.0
1406.13,-120882.71428571428
1408.1,-120841.71428571426
1410.1,-120780.28571428571
1412.1,-120746.42857142855
1414.1,-120751.14285714286
1416.1,-120753.0
1418.1,-120715.28571428572
1420.1,-120658.42857142858
1422.1,-120631.57142857143
1424.1,-120645.85714285716
1426.1,-120660.2857142857
1428.1,-120635.85714285713
1430.1,-120585.42857142855
1432.1,-120557.71428571428
1434.1,-120572.14285714284
1436.1,-120588.42857142857
1438.1,-120560.42857142858
1440.1,-120504.0
1442.1,-120476.14285714284
1444.1,-120494.14285714284
1446.1,-120517.99999999999
1448.1,-120512.28571428571
1450.1,-120486.85714285713
1452.1,-120474.71428571428
1454.1,-120493.14285714284
1456.1,-120526.57142857142
1458.1,-120543.28571428571
1460.1,-120533.42857142857
1462.1,-120523.42857142857
1464.1,-120541.99999999999
1466.1,-120580.28571428571
1468.1,-120599.14285714286
1470.1,-120577.42857142857
1472.1,-120538.42857142857
1474.1,-120522.42857142857
1476.1,-120540.42857142857
1478.1,-120564.71428571428
1480.1,-120563.2857142857
1482.08,-120539.2857142857
1484.05,-120530.2857142857
1486.03,-120560.85714285713
1488.0,-120599.85714285713
1490.0,-120592.14285714284
1492.0,-120539.57142857143
1494.0,-120508.14285714286
1496.0,-120538.28571428571
1498.0,-120594.0
1500.0,-120623.42857142857
1502.0,-120627.42857142857
1504.0,-120643.85714285714
1506.0,-120694.57142857142
1508.0,-120764.71428571429
1510.0,-120817.85714285713
1512.0,-120829.42857142855
1514.0,-120817.71428571426
1516.0,-120829.5714285714
1518.0,-120885.0
1520.0,-120949.85714285713
1522.0,-120977.57142857142
1524.0,-120968.0
1526.0,-120969.42857142857
1528.0,-121015.14285714286
1530.0,-121075.85714285713
1532.0,-121096.14285714286
1534.0,-121070.28571428571
1536.0,-121049.42857142857
1538.0,-121073.28571428571
1540.0,-121123.71428571428
1542.0,-121156.85714285713
1544.0,-121158.42857142857
1546.0,-121156.42857142855
1548.0,-121184.42857142855
1550.0,-121239.71428571428
1552.0,-121281.28571428568
1554.0,-121274.57142857142
1556.0,-121234.57142857142
1558.0,-121210.85714285713
1560.0,-121225.71428571428
1561.98,-121245.14285714284
1563.95,-121230.57142857142
1565.93,-121199.85714285713
1567.9,-121202.42857142855
1569.9,-121244.57142857142
1571.9,-121282.5714285714
1573.9,-121286.42857142855
1575.9,-121274.42857142855
1577.9,-121279.2857142857
1579.9,-121307.99999999999
1581.9,-121340.85714285712
1583.9,-121354.71428571426
1585.9,-121345.14285714284
1587.9,-121332.57142857142
1589.9,-121339.99999999999
1591.9,-121362.5714285714
1593.9,-121368.85714285714
1595.9,-121340.71428571429
1597.9,-121299.71428571428
1599.9,-121281.14285714286
1601.9,-121290.85714285713
1603.9,-121301.0
1605.9,-121285.42857142857
1607.9,-121250.57142857142
1609.9,-121225.85714285713
1611.9,-121229.42857142857
1613.9,-121248.14285714286
1615.9,-121251.14285714286
1617.9,-121225.71428571428
1619.9,-121197.28571428571
1621.9,-121203.57142857142
1623.9,-121244.42857142857
1625.9,-121276.14285714284
1627.9,-121269.85714285713
1629.9,-121254.71428571428
1631.9,-121274.28571428571
1633.9,-121321.57142857142
1635.9,-121347.57142857142
1637.9,-121326.57142857142
1639.9,-121289.57142857142
1641.88,-121286.99999999999
1643.85,-121322.14285714284
1645.83,-121346.2857142857
1647.8,-121333.42857142855
1649.8,-121318.5714285714
1651.8,-121330.71428571426
1653.8,-121347.71428571426
1655.8,-121351.42857142855
1657.8,-121360.85714285713
1659.8,-121380.42857142857
1661.8,-121386.57142857142
1663.8,-121381.57142857142
1665.8,-121398.57142857142
1667.8,-121438.99999999999
1669.8,-121460.0
1671.8,-121437.28571428571
1673.8,-121402.71428571429
1675.8,-121394.57142857142
1677.8,-121406.28571428571
1679.8,-121414.71428571428
1681.8,-121420.85714285714
1683.8,-121431.57142857142
1685.8,-121443.85714285713
1687.8,-121464.85714285714
1689.8,-121499.14285714286
1691.8,-121519.14285714287
1693.8,-121502.42857142858
1695.8,-121479.71428571429
1697.8,-121492.28571428571
1699.8,-121528.57142857142
1701.8,-121547.42857142858
1703.8,-121540.28571428571
1705.8,-121533.28571428571
1707.8,-121543.42857142857
1709.8,-121556.71428571429
1711.8,-121548.28571428571
1713.8,-121511.57142857143
1715.8,-121465.85714285714
1717.8,-121439.71428571428
1719.8,-121443.99999999999
1721.78,-121459.99999999999
1723.75,-121461.85714285713
1725.73,-121448.99999999999
1727.7,-121443.42857142855
1729.7,-121459.71428571428
1731.7,-121485.14285714284
1733.7,-121488.99999999999
1735.7,-121454.42857142855
1737.7,-121406.85714285714
1739.7,-121388.14285714284
1741.7,-121398.57142857142
1743.7,-121394.28571428571
1745.7,-121350.42857142857
1747.7,-121295.57142857142
1749.7,-121271.14285714286
1751.7,-121276.14285714286
1753.7,-121270.57142857142
1755.7,-121226.99999999999
1757.7,-121164.71428571428
1759.7,-121124.85714285713
1761.7,-121123.71428571429
1763.7,-121140.14285714284
1765.7,-121143.42857142857
1767.7,-121128.42857142858
1769.7,-121128.42857142857
1771.7,-121178.71428571428
1773.7,-121264.14285714284
1775.7,-121329.14285714286
1777.7,-121351.99999999997
1779.7,-121371.14285714284
1781.7,-121424.2857142857
1783.7,-121494.14285714286
1785.7,-121535.14285714286
1787.7,-121531.57142857142
1789.7,-121511.71428571428
1791.7,-121512.85714285713
1793.7,-121542.28571428571
1795.7,-121570.57142857142
1797.7,-121567.71428571428
1799.6,-121546.28571428571
1801.6,-121553.28571428571
1803.6,-121614.0
1805.6,-121696.71428571429
1807.6,-121749.28571428571
1809.6,-121761.57142857142
1811.6,-121769.42857142857
1813.6,-121797.14285714284
1815.6,-121819.99999999999
1817.6,-121798.42857142857
1819.6,-121735.71428571429
1821.6,-121677.14285714284
1823.6,-121655.2857142857
1825.6,-121659.5714285714
1827.6,-121659.14285714284
1829.6,-121644.0
1831.6,-121634.99999999999
1833.6,-121657.28571428571
1835.6,-121709.14285714284
1837.6,-121761.71428571429
1839.6,-121789.14285714287
1841.6,-121792.28571428571
1843.6,-121784.99999999999
1845.6,-121764.85714285713
1847.6,-121697.42857142855
1849.6,-121532.85714285713
1851.6,-121253.14285714284
1853.6,-120898.71428571426
1855.6,-120525.57142857142
1857.6,-120146.0
1859.6,-119745.42857142857
1861.6,-119350.71428571429
1863.6,-119045.14285714286
1865.6,-118909.71428571429
1867.6,-118961.0
1869.6,-119151.5714285714
1871.6,-119436.85714285713
1873.6,-119826.85714285713
1875.6,-120335.85714285714
1877.6,-120895.14285714286
1879.5,-121377.00000000001
1881.5,-121711.57142857143
1883.5,-121928.71428571429
1885.5,-122078.85714285713
1887.5,-122158.5714285714
1889.5,-122135.99999999999
1891.5,-122026.0
1893.5,-121900.71428571428
1895.5,-121819.42857142857
1897.5,-121776.2857142857
1899.5,-121736.71428571428
1901.5,-121692.0
1903.5,-121659.42857142858
1905.5,-121652.71428571429
1907.5,-121671.14285714286
1909.5,-121698.57142857143
1911.5,-121712.0
1913.5,-121700.42857142857
1915.5,-121678.28571428571
1917.5,-121671.28571428571
1919.5,-121687.14285714286
1921.5,-121702.5714285714
1923.5,-121691.42857142857
1925.5,-121666.85714285713
1927.5,-121671.85714285713
1929.5,-121716.42857142855
1931.5,-121753.42857142855
1933.5,-121740.99999999999
1935.5,-121702.57142857142
1937.5,-121693.99999999997
1939.5,-121726.14285714286
1941.5,-121753.42857142855
1943.5,-121735.42857142857
1945.5,-121685.14285714284
1947.5,-121647.71428571426
1949.5,-121641.2857142857
1951.48,-121636.14285714284
1953.45,-121596.14285714283
1955.43,-121529.99999999997
1957.4,-121483.28571428568
1959.4,-121484.14285714283
1961.4,-121512.5714285714
1963.4,-121528.42857142855
1965.4,-121516.57142857142
1967.4,-121500.5714285714
1969.4,-121508.42857142855
1971.4,-121533.14285714283
1973.4,-121538.42857142855
1975.4,-121506.14285714284
1977.4,-121463.42857142855
1979.4,-121454.42857142855
1981.4,-121491.57142857139
1983.4,-121542.71428571426
1985.4,-121567.42857142857
1987.4,-121563.2857142857
1989.4,-121565.0
1991.4,-121592.14285714286
1993.4,-121616.42857142858
1995.4,-121598.85714285714
1997.4,-121544.57142857143
1999.4,-121498.85714285714
2001.4,-121495.28571428571
2003.4,-121520.57142857142
2005.4,-121532.28571428571
2007.4,-121512.28571428571
2009.4,-121492.57142857142
2011.4,-121510.85714285713
2013.4,-121550.14285714284
2015.4,-121556.99999999997
2017.4,-121517.57142857142
2019.4,-121477.14285714284
2021.4,-121476.57142857142
2023.4,-121502.14285714286
2025.4,-121509.0
2027.4,-121478.42857142857
2029.4,-121438.42857142858
2031.38,-121426.57142857143
2033.35,-121444.42857142858
2035.33,-121459.57142857143
2037.3,-121446.99999999999
2039.3,-121415.14285714284
2041.3,-121391.14285714284
2043.3,-121386.57142857142
2045.3,-121384.28571428571
2047.3,-121357.85714285714
2049.3,-121302.85714285713
2051.3,-121241.28571428571
2053.3,-121198.0
2055.3,-121178.0
2057.3,-121163.0
2059.3,-121129.71428571428
2061.3,-121082.85714285713
2063.3,-121058.71428571429
2065.3,-121077.0
2067.3,-121105.14285714286
2069.3,-121097.57142857142
2071.3,-121060.28571428571
2073.3,-121043.0
2075.3,-121068.14285714286
2077.3,-121097.14285714286
2079.3,-121082.71428571429
2081.3,-121037.57142857142
2083.3,-121020.28571428571
2085.3,-121053.85714285713
2087.3,-121094.85714285713
2089.3,-121096.85714285714
2091.3,-121070.0
2093.3,-121054.57142857142
2095.3,-121062.14285714284
2097.3,-121072.99999999999
2099.3,-121069.99999999999
2101.3,-121056.14285714284
2103.3,-121050.14285714284
2105.3,-121071.42857142857
2107.3,-121119.14285714286
2109.3,-121166.85714285714
2111.28,-121187.42857142857
2113.25,-121182.85714285714
2115.23,-121182.28571428571
2117.2,-121207.99999999999
2119.2,-121248.71428571426
2121.2,-121273.42857142855
2123.2,-121273.2857142857
2125.2,-121277.5714285714
2127.2,-121320.14285714286
2129.2,-121392.28571428571
2131.2,-121445.28571428571
2133.2,-121449.71428571428
2135.2,-121436.0
2137.2,-121458.14285714286
2139.2,-121525.14285714286
2141.2,-121590.14285714286
2143.2,-121609.28571428571
2145.2,-121599.57142857143
2147.2,-121618.42857142858
2149.2,-121681.42857142858
2151.2,-121733.14285714287
2153.2,-121730.28571428572
2155.2,-121704.28571428571
2157.2,-121701.28571428571
2159.2,-121713.71428571428
2161.2,-121718.42857142857
2163.2,-121724.85714285713
2165.2,-121745.85714285713
2167.2,-121769.14285714284
2169.2,-121790.14285714284
2171.2,-121828.85714285713
2173.2,-121889.28571428568
2175.2,-121936.99999999999
2177.2,-121945.42857142857
2179.2,-121936.0
2181.2,-121943.99999999999
2183.2,-121970.28571428571
2185.2,-121994.42857142858
2187.2,-122003.57142857142
2189.2,-121993.42857142858
2191.18,-121976.42857142858
2193.15,-121983.28571428571
2195.13,-122015.28571428571
2197.1,-122026.71428571428
2199.1,-121998.85714285714
2201.1,-121982.0
2203.1,-122018.42857142857
2205.1,-122073.42857142857
2207.1,-122088.85714285714
2209.1,-122064.28571428571
2211.1,-122045.71428571428
2213.1,-122057.28571428571
2215.1,-122078.85714285712
2217.1,-122083.85714285712
2219.1,-122074.14285714283
2221.1,-122071.85714285713
2223.1,-122093.14285714286
2225.1,-122133.99999999999
2227.1,-122173.14285714284
2229.1,-122188.5714285714
2231.1,-122179.71428571429
2233.1,-122172.42857142858
2235.1,-122188.42857142855
2237.1,-122217.28571428571
2239.1,-122228.71428571429
2241.1,-122212.71428571429
2243.1,-122195.57142857142
2245.1,-122210.85714285714
2247.1,-122256.0
2249.1,-122291.28571428572
2251.1,-122286.0
2253.1,-122258.14285714286
2255.1,-122247.57142857142
2257.1,-122259.14285714284
2259.1,-122256.57142857142
2261.1,-122217.57142857142
2263.1,-122170.85714285713
2265.1,-122162.28571428571
2267.1,-122200.42857142857
2269.1,-122250.14285714286
2271.08,-122274.71428571429
2273.05,-122274.14285714287
2275.03,-122280.14285714287
2277.0,-122310.85714285716
2279.0,-122344.00000000001
2281.0,-122345.0
2283.0,-122317.14285714286
2285.0,-122301.0
2287.0,-122323.28571428572
2289.0,-122365.71428571429
2291.0,-122393.0
2293.0,-122395.0
2295.0,-122392.42857142857
2297.0,-122407.85714285713
2299.0,-122440.5714285714
2301.0,-122469.14285714284
2303.0,-122473.85714285713
2305.0,-122459.42857142855
2307.0,-122459.14285714287
2309.0,-122498.85714285714
2311.0,-122554.71428571429
2313.0,-122573.85714285713
2315.0,-122545.57142857142
2317.0,-122520.14285714284
2319.0,-122543.99999999997
2321.0,-122595.14285714286
2323.0,-122610.42857142855
2325.0,-122572.71428571428
2327.0,-122541.14285714284
2329.0,-122570.99999999999
2331.0,-122633.2857142857
2333.0,-122658.42857142857
2335.0,-122636.71428571429
2337.0,-122619.57142857142
2339.0,-122636.14285714286
2341.0,-122660.85714285714
2343.0,-122659.28571428571
2345.0,-122628.28571428572
2347.0,-122590.0
2349.0,-122567.14285714284
2350.98,-122564.99999999999
2352.95,-122567.85714285713
2354.93,-122554.14285714284
2356.9,-122520.99999999999
2358.9,-122491.14285714284
2360.9,-122485.42857142857
2362.9,-122492.71428571429
2364.9,-122479.42857142857
2366.9,-122434.14285714287
2368.9,-122386.71428571429
2370.9,-122371.0
2372.9,-122381.0
2374.9,-122382.14285714286
2376.9,-122361.99999999999
2378.9,-122354.28571428571
2380.9,-122401.85714285713
2382.9,-122498.42857142857
2384.9,-122584.71428571428
2386.9,-122617.42857142857
2388.9,-122624.42857142857
2390.9,-122660.57142857142
2392.9,-122721.57142857143
2394.9,-122746.14285714286
2396.9,-122708.14285714287
2398.9,-122661.85714285714
2400.9,-122673.57142857142
2402.9,-122739.42857142857
2404.9,-122798.71428571429
2406.9,-122814.85714285714
2408.9,-122813.0
2410.9,-122834.14285714286
2412.9,-122878.42857142857
2414.9,-122910.71428571429
2416.9,-122907.85714285714
2418.9,-122882.57142857142
2420.9,-122865.57142857142
2422.9,-122877.71428571429
2424.9,-122912.57142857143
2426.9,-122941.42857142857
2428.9,-122944.71428571428
2430.88,-122936.0
2432.85,-122947.28571428571
2434.83,-122993.57142857142
2436.8,-123056.28571428571
2438.8,-123104.57142857143
2440.8,-123134.99999999999
2442.8,-123177.57142857142
2444.8,-123248.2857142857
2446.8,-123311.85714285713
2448.8,-123313.85714285713
2450.8,-123237.71428571426
2452.8,-123108.71428571428
2454.8,-122945.42857142854
2456.8,-122724.2857142857
2458.8,-122400.57142857142
2460.8,-121971.99999999999
2462.8,-121509.85714285713
2464.8,-121100.85714285713
2466.8,-120766.42857142855
2468.8,-120482.71428571426
2470.8,-120275.57142857142
2472.8,-120235.2857142857
2474.8,-120415.14285714286
2476.8,-120765.28571428571
2478.8,-121195.85714285714
2480.8,-121664.14285714286
2482.8,-122161.57142857143
2484.8,-122648.57142857142
2486.8,-123053.71428571428
2488.8,-123327.42857142857
2490.8,-123463.71428571428
2492.8,-123484.57142857142
2494.8,-123432.28571428571
2496.8,-123356.57142857142
2498.8,-123279.28571428571
2500.8,-123187.71428571428
2502.8,-123081.85714285713
2504.8,-123001.42857142857
2506.8,-122981.42857142857
2508.8,-123003.0
2510.78,-123015.28571428571
2512.75,-122996.57142857142
2514.73,-122976.71428571426
2516.7,-122995.71428571426
2518.7,-123046.28571428571
2520.7,-123075.28571428571
2522.7,-123052.57142857143
2524.7,-123017.28571428572
2526.7,-123028.14285714286
2528.7,-123080.14285714284
2530.7,-123108.99999999999
2532.7,-123080.99999999999
2534.7,-123037.99999999999
2536.7,-123035.85714285714
2538.7,-123068.85714285714
2540.7,-123086.71428571429
2542.7,-123067.85714285714
2544.7,-123043.14285714287
2546.7,-123050.42857142858
2548.7,-123089.71428571429
2550.7,-123127.71428571429
2552.7,-123135.14285714286
2554.7,-123115.71428571429
2556.7,-123097.28571428571
2558.7,-123094.99999999999
2560.7,-123093.42857142857
2562.7,-123071.85714285714
2564.7,-123034.28571428571
2566.7,-123005.85714285714
2568.7,-123005.28571428571
2570.7,-123028.42857142857
2572.7,-123053.71428571428
2574.7,-123059.85714285714
2576.7,-123045.14285714286
2578.7,-123030.85714285714
2580.7,-123034.28571428571
2582.7,-123037.0
2584.7,-123003.57142857142
2586.7,-122937.85714285714
2588.7,-122889.85714285714
2590.68,-122890.0
2592.65,-122905.57142857142
2594.63,-122889.28571428571
2596.6,-122845.42857142857
2598.6,-122818.85714285713
2600.6,-122831.85714285713
2602.6,-122859.57142857142
2604.6,-122864.71428571426
2606.6,-122839.71428571428
2608.6,-122810.14285714284
2610.6,-122804.28571428571
2612.6,-122820.99999999999
2614.6,-122831.57142857142
2616.6,-122814.14285714286
2618.6,-122781.85714285714
2620.6,-122767.71428571428
2622.6,-122783.85714285713
2624.6,-122806.14285714284
2626.6,-122805.28571428571
2628.6,-122779.85714285713
2630.6,-122755.42857142857
2632.6,-122754.57142857142
2634.6,-122770.71428571428
2636.6,-122770.99999999999
2638.6,-122735.99999999999
2640.6,-122691.28571428571
2642.6,-122680.71428571426
2644.6,-122708.99999999997
2646.6,-122731.71428571428
2648.6,-122707.71428571428
2650.6,-122652.28571428571
2652.6,-122621.71428571429
2654.6,-122634.2857142857
2656.6,-122638.85714285713
2658.6,-122595.57142857142
2660.6,-122545.28571428571
2662.6,-122541.14285714284
2664.6,-122564.28571428571
2666.6,-122566.42857142857
2668.6,-122543.85714285716
2670.58,-122517.85714285714
2672.55,-122491.42857142857
2674.53,-122459.85714285714
2676.5,-122431.14285714284
2678.5,-122413.14285714284
2680.5,-122401.42857142857
2682.5,-122390.57142857143
2684.5,-122385.28571428571
2686.5,-122390.28571428571
2688.5,-122400.14285714286
2690.5,-122407.42857142858
2692.5,-122403.57142857143
2694.5,-122375.14285714287
2696.5,-122328.14285714287
2698.5,-122299.57142857143
2700.5,-122304.57142857142
2702.5,-122303.14285714284
2704.5,-122267.42857142855
2706.5,-122238.14285714284
2708.5,-122258.2857142857
2710.5,-122296.71428571429
2712.5,-122295.14285714286
2714.5,-122253.14285714284
2716.5,-122218.99999999999
2718.5,-122219.99999999999
2720.5,-122240.14285714286
2722.5,-122253.71428571428
2724.5,-122255.71428571428
2726.5,-122264.99999999999
2728.5,-122303.57142857142
2730.5,-122365.14285714286
2732.5,-122413.0
2734.5,-122424.85714285713
2736.5,-122423.14285714287
2738.5,-122445.57142857142
2740.5,-122499.42857142857
2742.5,-122559.42857142858
2744.5,-122598.14285714284
2746.5,-122615.14285714284
2748.4,-122637.99999999999
2750.4,-122688.85714285713
2752.4,-122747.85714285713
2754.4,-122773.71428571426
2756.4,-122762.85714285713
2758.4,-122759.42857142857
2760.4,-122795.57142857142
2762.4,-122849.42857142857
2764.4,-122876.42857142855
2766.4,-122868.2857142857
2768.4,-122859.85714285712
2770.4,-122880.28571428568
2772.4,-122918.99999999999
2774.4,-122947.42857142855
2776.4,-122952.85714285713
2778.4,-122946.14285714286
2780.4,-122949.42857142857
2782.4,-122973.71428571429
2784.4,-122999.0
2786.4,-122992.28571428572
2788.4,-122955.28571428571
2790.4,-122929.28571428571
2792.4,-122939.0
2794.4,-122961.14285714286
2796.4,-122961.0
2798.4,-122938.14285714286
2800.4,-122922.14285714284
2802.4,-122933.71428571428
2804.4,-122960.71428571428
2806.4,-122974.57142857142
2808.4,-122964.85714285713
2810.4,-122951.0
2812.4,-122957.14285714284
2814.4,-122985.57142857142
2816.4,-123014.85714285712
2818.4,-123017.28571428568
2820.4,-122987.99999999999
2822.4,-122958.85714285713
2824.4,-122962.28571428571
2826.4,-122981.85714285713
2828.3,-122968.28571428571
2830.3,-122910.99999999999
2832.3,-122862.71428571429
2834.3,-122871.85714285713
2836.3,-122914.28571428571
2838.3,-122924.2857142857
2840.3,-122887.57142857142
2842.3,-122861.99999999999
2844.3,-122893.42857142855
2846.3,-122951.85714285713
2848.3,-122977.99999999999
2850.3,-122962.99999999997
2852.3,-122950.14285714284
2854.3,-122972.99999999999
2856.3,-123013.99999999999
2858.3,-123027.71428571428
2860.3,-122998.99999999997
2862.3,-122963.42857142857
2864.3,-122959.71428571428
2866.3,-122980.28571428572
2868.3,-122988.57142857143
2870.3,-122971.28571428572
2872.3,-122949.42857142857
2874.3,-122945.42857142855
2876.3,-122961.71428571428
2878.3,-122984.14285714284
2880.3,-122995.71428571426
2882.3,-122990.99999999999
2884.3,-122986.85714285713
2886.3,-123006.57142857142
2888.3,-123045.57142857142
2890.3,-123067.71428571426
2892.3,-123050.57142857142
2894.3,-123018.14285714286
2896.3,-123012.85714285714
2898.3,-123038.14285714286
2900.28,-123051.85714285714
2902.25,-123026.28571428571
2904.23,-122993.28571428571
2906.2,-123004.28571428571
2908.2,-123054.85714285713
2910.2,-123083.71428571428
2912.2,-123055.42857142857
2914.2,-123007.42857142857
2916.2,-122994.42857142857
2918.2,-123015.14285714286
2920.2,-123024.57142857142
2922.2,-122999.42857142857
2924.2,-122961.28571428571
2926.2,-122942.14285714286
2928.2,-122949.42857142857
2930.2,-122960.0
2932.2,-122939.71428571429
2934.2,-122875.42857142857
2936.2,-122792.14285714286
2938.2,-122729.42857142857
2940.2,-122696.42857142857
2942.2,-122664.71428571428
2944.2,-122611.85714285714
2946.2,-122560.0
2948.2,-122553.57142857143
2950.2,-122604.71428571429
2952.2,-122674.28571428571
2954.2,-122717.57142857143
2956.2,-122737.28571428571
2958.2,-122778.57142857142
2960.2,-122864.85714285713
2962.2,-122957.28571428571
2964.2,-122998.14285714284
2966.2,-122988.71428571428
2968.2,-122986.71428571428
2970.2,-123020.99999999999
2972.2,-123048.2857142857
2974.2,-123019.42857142855
2976.2,-122955.85714285713
2978.2,-122924.99999999999
2980.18,-122955.14285714283
2982.15,-123008.57142857142
2984.13,-123038.85714285713
2986.1,-123044.42857142857
2988.1,-123055.85714285714
2990.1,-123088.71428571428
2992.1,-123124.28571428572
2994.1,-123131.14285714286
2996.1,-123098.71428571428
2998.1,-123052.28571428571
3000.1,-123030.0
3002.1,-123040.28571428571
3004.1,-123051.14285714284
3006.1,-123030.99999999997
3008.1,-122988.99999999999
3010.1,-122965.71428571429
3012.1,-122988.14285714287
3014.1,-123042.28571428572
3016.1,-123090.42857142858
3018.1,-123117.85714285714
3020.1,-123149.71428571429
3022.1,-123207.57142857142
3024.1,-123262.57142857142
3026.1,-123254.57142857143
3028.1,-123153.42857142858
3030.1,-122979.14285714286
3032.1,-122762.0
3034.1,-122500.57142857145
3036.1,-122168.71428571428
3038.1,-121761.42857142858
3040.1,-121328.0
3042.1,-120944.42857142855
3044.1,-120653.99999999999
3046.1,-120454.85714285713
3048.1,-120350.85714285713
3050.1,-120386.28571428571
3052.1,-120607.14285714283
3054.1,-121000.85714285712
3056.1,-121489.99999999999
3058.1,-121984.14285714284
3060.08,-122432.57142857143
3062.05,-122824.85714285714
3064.03,-123145.71428571426
3066.0,-123354.14285714284
3068.0,-123417.71428571426
3070.0,-123356.99999999999
3072.0,-123241.28571428571
3074.0,-123135.2857142857
3076.0,-123053.28571428571
3078.0,-122973.42857142855
3080.0,-122891.42857142857
3082.0,-122836.42857142858
3084.0,-122829.28571428571
3086.0,-122853.2857142857
3088.0,-122876.71428571428
3090.0,-122880.0
3092.0,-122864.99999999997
3094.0,-122853.5714285714
3096.0,-122864.42857142855
3098.0,-122882.99999999999
3100.0,-122875.57142857142
3102.0,-122836.14285714284
3104.0,-122801.14285714284
3106.0,-122807.57142857142
3108.0,-122841.14285714284
3110.0,-122845.57142857143
3112.0,-122797.71428571428
3114.0,-122746.85714285713
3116.0,-122745.14285714286
3118.0,-122767.85714285714
3120.0,-122752.57142857143
3122.0,-122694.99999999999
3124.0,-122651.57142857142
3126.0,-122655.99999999999
3128.0,-122679.14285714284
3130.0,-122675.71428571428
3132.0,-122639.71428571428
3134.0,-122599.57142857142
3136.0,-122576.42857142855
3138.0,-122566.14285714286
3139.98,-122556.14285714284
3141.95,-122541.28571428571
3143.93,-122523.71428571428
3145.9,-122511.14285714286
3147.9,-122516.99999999999
3149.9,-122543.99999999999
3151.9,-122562.99999999999
3153.9,-122535.85714285713
3155.9,-122475.14285714284
3157.9,-122443.14285714284
3159.9,-122465.14285714286
3161.9,-122486.71428571428
3163.9,-122461.14285714286
3165.9,-122422.0
3167.9,-122421.28571428571
3169.9,-122445.71428571429
3171.9,-122448.42857142857
3173.9,-122420.28571428571
3175.9,-122386.85714285713
3177.9,-122362.99999999999
3179.9,-122348.99999999999
3181.9,-122346.57142857142
3183.9,-122352.42857142855
3185.9,-122352.85714285713
3187.9,-122346.71428571426
3189.9,-122347.99999999999
3191.9,-122354.14285714284
3193.9,-122347.71428571426
3195.9,-122331.42857142857
3197.9,-122316.42857142855
3199.9,-122290.99999999999
3201.9,-122252.71428571428
3203.9,-122233.42857142855
3205.9,-122241.14285714284
3207.9,-122227.42857142857
3209.9,-122164.42857142858
3211.9,-122098.14285714286
3213.9,-122079.57142857142
3215.9,-122084.71428571428
3217.9,-122055.5714285714
3219.88,-121991.71428571428
3221.85,-121952.14285714284
3223.83,-121966.71428571426
3225.8,-121993.57142857142
3227.8,-121979.99999999999
3229.8,-121930.57142857142
3231.8,-121886.0
3233.8,-121859.14285714286
3235.8,-121824.71428571429
3237.8,-121761.71428571429
3239.8,-121680.28571428571
3241.8,-121606.99999999999
3243.8,-121561.14285714286
3245.8,-121543.85714285713
3247.8,-121537.85714285713
3249.8,-121520.14285714286
3251.8,-121488.42857142857
3253.8,-121467.0
3255.8,-121471.14285714287
3257.8,-121478.2857142857
3259.8,-121458.57142857142
3261.8,-121421.71428571428
3263.8,-121404.42857142857
3265.8,-121418.14285714284
3267.8,-121437.2857142857
3269.8,-121434.71428571428
3271.8,-121405.71428571428
3273.8,-121362.99999999999
3275.8,-121330.71428571428
3277.8,-121325.42857142855
3279.8,-121331.0
3281.8,-121314.57142857143
3283.8,-121279.85714285714
3285.8,-121271.85714285713
3287.8,-121309.57142857142
3289.8,-121347.99999999999
3291.8,-121338.71428571428
3293.8,-121300.42857142857
3295.8,-121290.42857142857
3297.8,-121325.57142857142
3299.78,-121370.0
3301.75,-121393.71428571426
3303.73,-121406.2857142857
3305.7,-121432.2857142857
3307.7,-121477.28571428571
3309.7,-121524.0
3311.7,-121550.42857142857
3313.7,-121548.42857142858
3315.7,-121532.42857142858
3317.7,-121529.57142857142
3319.7,-121554.71428571428
3321.7,-121589.42857142855
3323.7,-121600.57142857142
3325.7,-121587.57142857142
3327.7,-121592.42857142857
3329.7,-121642.85714285713
3331.7,-121707.57142857142
3333.7,-121735.71428571429
3335.7,-121730.42857142857
3337.7,-121746.85714285713
3339.7,-121810.0
3341.7,-121871.42857142858
3343.7,-121872.0
3345.7,-121819.85714285713
3347.7,-121774.28571428571
3349.7,-121768.85714285713
3351.7,-121782.0
3353.7,-121775.28571428571
3355.7,-121740.42857142857
3357.7,-121708.14285714284
3359.7,-121714.85714285713
3361.7,-121754.42857142855
3363.7,-121774.85714285714
3365.7,-121743.14285714284
3367.7,-121693.57142857142
3369.7,-121678.99999999999
3371.7,-121694.85714285713
3373.7,-121691.99999999999
3375.7,-121652.2857142857
3377.7,-121612.85714285713
3379.68,-121609.85714285713
3381.65,-121633.42857142855
3383.63,-121649.42857142857
3385.6,-121644.14285714284
3387.6,-121628.71428571428
3389.6,-121617.85714285713
3391.6,-121620.85714285714
3393.6,-121637.0
3395.6,-121643.85714285714
3397.6,-121618.0
3399.6,-121580.57142857143
3401.6,-121582.85714285714
3403.6,-121628.42857142855
3405.6,-121655.28571428571
3407.6,-121619.14285714284
3409.6,-121557.85714285712
3411.6,-121540.99999999999
3413.6,-121576.28571428572
3415.6,-121602.71428571429
3417.6,-121578.57142857143
3419.6,-121539.14285714286
3421.6,-121543.57142857142
3423.6,-121587.14285714284
3425.6,-121609.85714285713
3427.6,-121578.5714285714
3429.6,-121521.85714285712
3431.6,-121484.5714285714
3433.6,-121479.14285714284
3435.6,-121482.14285714286
3437.6,-121465.14285714286
3439.6,-121427.28571428571
3441.6,-121398.85714285713
3443.6,-121404.42857142855
3445.6,-121430.28571428571
3447.6,-121438.28571428571
3449.6,-121410.14285714286
3451.6,-121371.71428571429
3453.6,-121365.42857142857
3455.6,-121396.85714285713
3457.5,-121421.71428571428
3459.5,-121400.71428571428
3461.5,-121352.71428571428
3463.5,-121330.14285714284
3465.5,-121349.57142857142
3467.5,-121370.42857142855
3469.5,-121345.99999999999
3471.5,-121284.57142857142
3473.5,-121242.42857142857
3475.5,-121250.99999999999
3477.5,-121272.71428571428
3479.5,-121249.57142857142
3481.5,-121178.71428571428
3483.5,-121112.42857142857
3485.5,-121089.28571428571
3487.5,-121091.57142857142
3489.5,-121073.28571428571
3491.5,-121017.71428571428
3493.5,-120958.0
3495.5,-120936.85714285714
3497.5,-120951.71428571429
3499.5,-120959.14285714284
3501.5,-120936.99999999997
3503.5,-120918.85714285714
3505.5,-120951.0
3507.5,-121031.0
3509.5,-121108.85714285713
3511.5,-121146.42857142857
3513.5,-121155.42857142857
3515.5,-121170.0
3517.5,-121196.85714285713
3519.5,-121210.14285714286
3521.5,-121186.71428571429
3523.5,-121136.42857142857
3525.5,-121097.00000000001
3527.5,-121101.14285714286
3529.48,-121137.28571428571
3531.45,-121154.42857142858
3533.43,-121123.14285714287
3535.4,-121081.71428571429
3537.4,-121084.14285714286
3539.4,-121120.42857142857
3541.4,-121130.71428571429
3543.4,-121092.71428571429
3545.4,-121047.57142857143
3547.4,-121038.85714285716
3549.4,-121058.28571428572
3551.4,-121061.71428571429
3553.4,-121023.71428571429
3555.4,-120969.0
3557.4,-120942.57142857142
3559.4,-120953.71428571428
3561.4,-120966.14285714286
3563.4,-120948.28571428571
3565.4,-120914.57142857142
3567.4,-120904.99999999999
3569.4,-120934.14285714284
3571.4,-120974.42857142855
3573.4,-120989.71428571428
3575.4,-120977.71428571428
3577.4,-120964.28571428571
3579.4,-120955.14285714286
3581.4,-120911.42857142858
3583.4,-120781.42857142858
3585.4,-120544.71428571429
3587.4,-120220.71428571429
3589.4,-119845.57142857142
3591.4,-119444.57142857142
3593.4,-119030.42857142858
3595.4,-118630.57142857143
3597.4,-118309.0
3599.4,-118141.42857142858
3601.4,-118166.71428571428
3603.4,-118366.14285714284
3605.4,-118693.71428571428
3607.4,-119118.42857142854
3609.38,-119623.71428571426
3611.35,-120157.2857142857
3613.33,-120618.14285714284
3615.3,-120924.71428571428
3617.3,-121077.57142857142
3619.3,-121128.14285714284
3621.3,-121109.71428571428
3623.3,-121025.42857142857
3625.3,-120885.28571428571
3627.3,-120728.14285714286
3629.3,-120604.42857142857
3631.3,-120536.57142857142
3633.3,-120499.99999999999
3635.3,-120455.42857142857
3637.3,-120395.85714285712
3639.3,-120348.99999999999
3641.3,-120339.14285714284
3643.3,-120356.42857142855
3645.3,-120363.71428571428
3647.3,-120334.85714285713
3649.3,-120283.71428571428
3651.3,-120244.14285714286
3653.3,-120224.85714285713
3655.3,-120201.71428571428
3657.3,-120151.85714285714
3659.3,-120082.71428571429
3661.3,-120028.71428571429
3663.3,-120022.57142857142
3665.3,-120058.7142857143
3667.3,-120086.85714285714
3669.3,-120064.85714285714
3671.3,-120018.85714285714
3673.3,-120012.14285714286
3675.3,-120048.14285714287
3677.3,-120057.57142857143
3679.3,-120006.14285714284
3681.3,-119949.14285714284
3683.3,-119937.42857142857
3685.3,-119943.28571428571
3687.3,-119924.0
3689.28,-119886.14285714287
3691.25,-119848.71428571429
3693.23,-119810.85714285713
3695.2,-119780.14285714287
3697.2,-119773.85714285713
3699.2,-119778.85714285713
3701.2,-119760.42857142858
3703.2,-119718.71428571429
3705.2,-119689.14285714286
3707.2,-119681.99999999999
3709.2,-119670.71428571428
3711.2,-119644.85714285713
3713.2,-119621.5714285714
3715.2,-119604.2857142857
3717.2,-119584.0
3719.2,-119571.99999999999
3721.2,-119574.85714285713
3723.2,-119559.99999999999
3725.2,-119505.99999999999
3727.2,-119454.14285714284
3729.2,-119449.5714285714
3731.2,-119466.57142857142
3733.2,-119447.85714285713
3735.2,-119388.99999999999
3737.2,-119337.71428571428
3739.2,-119324.99999999999
3741.2,-119327.42857142857
3743.2,-119303.57142857142
3745.2,-119249.14285714284
3747.2,-119199.5714285714
3749.2,-119178.71428571429
3751.2,-119169.14285714284
3753.2,-119140.71428571426
3755.2,-119086.85714285713
3757.2,-119022.14285714286
3759.2,-118964.85714285714
3761.2,-118924.28571428571
3763.2,-118890.57142857143
3765.2,-118841.00000000001
3767.2,-118770.57142857145
3769.18,-118704.99999999999
3771.15,-118668.42857142857
3773.13,-118651.14285714286
3775.1,-118623.99999999999
3777.1,-118575.85714285713
3779.1,-118522.85714285714
3781.1,-118484.0
3783.1,-118458.0
3785.1,-118425.0
3787.1,-118368.0
3789.1,-118295.28571428571
3791.1,-118237.85714285714
3793.1,-118212.57142857142
3795.1,-118193.71428571428
3797.1,-118145.71428571428
3799.1,-118080.85714285713
3801.1,-118047.85714285713
3803.1,-118057.5714285714
3805.1,-118061.5714285714
3807.1,-118019.42857142855
3809.1,-117951.99999999997
3811.1,-117908.2857142857
3813.1,-117902.57142857142
3815.1,-117902.71428571429
3817.1,-117874.71428571429
3819.1,-117822.71428571428
3821.1,-117783.28571428571
3823.1,-117780.99999999999
3825.1,-117799.71428571428
3827.1,-117799.99999999999
3829.1,-117762.99999999999
3831.1,-117710.57142857142
3833.1,-117682.28571428571
3835.1,-117688.42857142857
3837.1,-117697.14285714286
3839.1,-117676.28571428571
3841.1,-117635.14285714286
3843.1,-117610.14285714287
3845.1,-117618.28571428572
3847.1,-117640.28571428571
3849.08,-117648.28571428571
3851.05,-117637.42857142857
3853.03,-117630.71428571428
3855.0,-117656.28571428571
3857.0,-117710.57142857142
3859.0,-117755.57142857142
3861.0,-117768.42857142857
3863.0,-117778.0
3865.0,-117822.42857142857
3867.0,-117882.5714285714
3869.0,-117898.85714285714
3871.0,-117854.42857142858
3873.0,-117800.0
3875.0,-117786.42857142858
3877.0,-117801.71428571429
3879.0,-117799.57142857143
3881.0,-117770.99999999999
3883.0,-117755.71428571428
3885.0,-117784.99999999999
3887.0,-117841.42857142855
3889.0,-117878.42857142855
3891.0,-117868.14285714284
3893.0,-117825.99999999999
3895.0,-117795.71428571426
3897.0,-117799.71428571428
3899.0,-117809.14285714283
3901.0,-117783.85714285713
3903.0,-117734.28571428571
3905.0,-117710.85714285713
3907.0,-117736.99999999999
3909.0,-117779.57142857142
3911.0,-117791.71428571429
3913.0,-117764.71428571428
3915.0,-117731.0
3917.0,-117721.71428571428
3919.0,-117733.57142857142
3921.0,-117735.85714285713
3923.0,-117705.71428571426
3925.0,-117656.2857142857
3927.0,-117631.28571428568
3928.98,-117653.2857142857
3930.95,-117682.85714285713
3932.93,-117660.57142857142
3934.9,-117593.71428571429
3936.9,-117551.71428571429
3938.9,-117564.99999999999
3940.9,-117583.28571428572
3942.9,-117554.85714285714
3944.9,-117497.71428571429
3946.9,-117465.28571428571
3948.9,-117473.0
3950.9,-117485.14285714286
3952.9,-117464.14285714284
3954.9,-117415.85714285713
3956.9,-117381.99999999999
3958.9,-117390.5714285714
3960.9,-117422.14285714284
3962.9,-117432.28571428571
3964.9,-117402.71428571428
3966.9,-117360.5714285714
3968.9,-117343.0
3970.9,-117348.85714285714
3972.9,-117340.85714285713
3974.9,-117295.14285714286
3976.9,-117231.99999999999
3978.9,-117194.71428571428
3980.9,-117204.42857142857
3982.9,-117232.14285714284
3984.9,-117225.5714285714
3986.9,-117174.57142857142
3988.9,-117130.5714285714
3990.9,-117133.85714285713
3992.9,-117151.0
3994.9,-117122.57142857142
3996.9,-117047.14285714286
3998.9,-116982.57142857142
4000.9,-116974.28571428572
4002.9,-117003.71428571429
4004.9,-117013.28571428571
4006.8,-116976.57142857142
4008.8,-116928.14285714284
4010.8,-116914.2857142857
4012.8,-116924.57142857142
4014.8,-116903.42857142857
4016.8,-116827.85714285714
4018.8,-116741.57142857142
4020.8,-116700.42857142857
4022.8,-116706.42857142857
4024.8,-116711.57142857142
4026.8,-116679.28571428571
4028.8,-116621.57142857142
4030.8,-116574.71428571428
4032.8,-116554.14285714284
4034.8,-116539.2857142857
4036.8,-116499.5714285714
4038.8,-116434.14285714284
4040.8,-116379.99999999997
4042.8,-116372.5714285714
4044.8,-116403.85714285713
4046.8,-116432.0
4048.8,-116432.99999999997
4050.8,-116430.57142857142
4052.8,-116465.85714285713
4054.8,-116539.0
4056.8,-116601.99999999999
4058.8,-116620.57142857143
4060.8,-116619.42857142855
4062.8,-116642.71428571426
4064.8,-116689.57142857143
4066.8,-116716.5714285714
4068.8,-116695.85714285713
4070.8,-116648.85714285713
4072.8,-116618.85714285714
4074.8,-116619.42857142857
4076.8,-116621.42857142858
4078.78,-116593.99999999999
4080.75,-116545.42857142857
4082.73,-116514.0
4084.7,-116518.57142857142
4086.7,-116531.71428571428
4088.7,-116512.85714285713
4090.7,-116457.99999999999
4092.7,-116403.14285714284
4094.7,-116379.42857142855
4096.7,-116378.85714285714
4098.7,-116371.57142857142
4100.7,-116346.28571428572
4102.7,-116322.71428571429
4104.7,-116325.14285714286
4106.7,-116352.14285714287
4108.7,-116379.28571428572
4110.7,-116388.28571428571
4112.7,-116388.85714285713
4114.7,-116409.57142857142
4116.7,-116461.85714285714
4118.7,-116518.99999999999
4120.7,-116539.0
4122.7,-116505.99999999999
4124.7,-116437.57142857142
4126.7,-116344.14285714284
4128.7,-116194.85714285712
4130.7,-115944.14285714284
4132.7,-115590.85714285713
4134.7,-115188.99999999999
4136.7,-114796.57142857143
4138.7,-114435.85714285716
4140.7,-114111.28571428571
4142.7,-113852.28571428571
4144.7,-113720.2857142857
4146.7,-113768.14285714286
4148.7,-113996.71428571428
4150.7,-114359.99999999999
4152.7,-114805.71428571428
4154.7,-115294.71428571428
4156.7,-115783.85714285713
4158.68,-116215.85714285713
4160.65,-116534.2857142857
4162.63,-116709.14285714284
4164.6,-116748.42857142855
4166.6,-116688.71428571428
4168.6,-116576.2857142857
4170.6,-116448.14285714284
4172.6,-116316.57142857142
4174.6,-116178.14285714286
4176.6,-116052.2857142857
4178.6,-115984.2857142857
4180.6,-115977.14285714284
4182.6,-115969.14285714284
4184.6,-115922.99999999999
4186.6,-115880.28571428571
4188.6,-115881.85714285713
4190.6,-115898.57142857142
4192.6,-115886.14285714286
4194.6,-115846.57142857142
4196.6,-115801.0
4198.6,-115758.14285714286
4200.6,-115731.42857142857
4202.6,-115735.14285714286
4204.6,-115750.57142857142
4206.6,-115742.71428571428
4208.6,-115717.42857142857
4210.6,-115707.28571428571
4212.6,-115704.28571428571
4214.6,-115674.71428571426
4216.6,-115629.57142857142
4218.6,-115604.28571428572
4220.6,-115589.14285714284
4222.6,-115558.85714285714
4224.6,-115535.28571428571
4226.6,-115545.99999999999
4228.6,-115558.85714285713
4230.6,-115531.99999999999
4232.6,-115490.99999999999
4234.6,-115488.5714285714
4236.6,-115514.71428571426
4238.58,-115514.28571428568
4240.55,-115478.8571428571
4242.53,-115456.5714285714
4244.5,-115472.0
4246.5,-115491.14285714284
4248.5,-115475.99999999997
4250.5,-115430.5714285714
4252.5,-115385.85714285713
4254.5,-115365.71428571428
4256.5,-115365.42857142857
4258.5,-115356.2857142857
4260.5,-115323.57142857142
4262.5,-115295.14285714286
4264.5,-115308.2857142857
4266.5,-115355.71428571428
4268.5,-115387.99999999999
4270.5,-115375.14285714286
4272.5,-115342.71428571428
4274.5,-115332.42857142857
4276.5,-115342.28571428571
4278.5,-115335.0
4280.5,-115298.57142857143
4282.5,-115259.57142857143
4284.5,-115237.42857142858
4286.5,-115226.71428571429
4288.5,-115219.14285714287
4290.5,-115204.42857142858
4292.5,-115166.0
4294.5,-115107.00000000001
4296.5,-115061.28571428572
4298.5,-115048.71428571428
4300.5,-115039.0
4302.5,-114993.28571428571
4304.5,-114925.28571428571
4306.5,-114886.14285714286
4308.5,-114891.42857142855
4310.5,-114895.71428571428
4312.5,-114856.85714285713
4314.5,-114796.42857142855
4316.5,-114762.99999999997
4318.48,-114757.57142857139
4320.45,-114738.42857142855
4322.43,-114683.85714285713
4324.4,-114614.28571428571
4326.4,-114559.71428571428
4328.4,-114530.42857142857
4330.4,-114509.14285714284
4332.4,-114468.85714285713
4334.4,-114408.57142857142
4336.4,-114361.71428571428
4338.4,-114351.42857142857
4340.4,-114358.71428571428
4342.4,-114350.85714285713
4344.4,-114324.0
4346.4,-114297.57142857142
4348.4,-114284.14285714284
4350.4,-114278.85714285714
4352.4,-114267.71428571428
4354.4,-114237.85714285713
4356.4,-114189.71428571428
4358.4,-114146.42857142857
4360.4,-114135.57142857142
4362.4,-114149.0
4364.4,-114144.71428571428
4366.4,-114108.28571428571
4368.4,-114081.42857142857
4370.4,-114100.71428571428
4372.4,-114135.71428571428
4374.4,-114130.28571428571
4376.4,-114084.57142857142
4378.4,-114050.5714285714
4380.4,-114060.57142857142
4382.4,-114093.71428571429
4384.4,-114108.71428571428
4386.4,-114091.28571428572
4388.4,-114072.71428571429
4390.4,-114094.28571428571
4392.4,-114147.85714285714
4394.4,-114176.85714285714
4396.3,-114153.71428571429
4398.3,-114122.2857142857
4400.3,-114137.57142857142
4402.3,-114192.14285714284
4404.3,-114230.28571428571
4406.3,-114223.57142857142
4408.3,-114201.42857142858
4410.3,-114205.42857142857
4412.3,-114237.85714285713
4414.3,-114268.2857142857
4416.3,-114271.85714285713
4418.3,-114255.85714285713
4420.3,-114255.42857142858
4422.3,-114297.28571428571
4424.3,-114361.14285714284
4426.3,-114395.71428571429
4428.3,-114379.42857142857
4430.3,-114345.85714285713
4432.3,-114338.99999999999
4434.3,-114361.57142857142
4436.3,-114376.0
4438.3,-114352.28571428571
4440.3,-114311.14285714284
4442.3,-114307.42857142857
4444.3,-114359.85714285713
4446.3,-114418.85714285713
4448.3,-114427.28571428571
4450.3,-114395.0
4452.3,-114383.14285714287
4454.3,-114417.28571428572
4456.3,-114454.14285714286
4458.3,-114446.42857142855
4460.3,-114407.99999999999
4462.3,-114389.14285714286
4464.3,-114409.14285714287
4466.3,-114437.14285714286
4468.28,-114435.28571428571
4470.25,-114401.57142857142
4472.23,-114367.28571428571
4474.2,-114359.85714285713
4476.2,-114375.2857142857
4478.2,-114388.14285714284
4480.2,-114380.99999999997
4482.2,-114359.85714285713
4484.2,-114346.28571428571
4486.2,-114353.0
4488.2,-114365.0
4490.2,-114355.42857142855
4492.2,-114323.85714285713
4494.2,-114303.0
4496.2,-114319.0
4498.2,-114356.14285714286
4500.2,-114373.57142857142
4502.2,-114353.71428571428
4504.2,-114325.99999999999
4506.2,-114330.85714285714
4508.2,-114360.42857142857
4510.2,-114360.99999999999
4512.2,-114310.71428571428
4514.2,-114260.14285714284
4516.2,-114264.42857142858
4518.2,-114303.71428571428
4520.2,-114313.57142857142
4522.2,-114276.57142857142
4524.2,-114240.42857142857
4526.2,-114244.42857142857
4528.2,-114265.42857142858
4530.2,-114252.71428571429
4532.2,-114191.57142857142
4534.2,-114112.85714285713
4536.2,-114051.85714285713
4538.2,-114017.85714285713
4540.2,-113995.57142857142
4542.2,-113965.0
4544.2,-113923.14285714286
4546.2,-113890.14285714286
4548.18,-113881.28571428571
4550.15,-113879.71428571428
4552.13,-113853.14285714287
4554.1,-113797.57142857142
4556.1,-113744.14285714284
4558.1,-113725.0
4560.1,-113739.57142857142
4562.1,-113758.71428571426
4564.1,-113759.57142857142
4566.1,-113758.14285714286
4568.1,-113789.71428571429
4570.1,-113855.00000000001
4572.1,-113908.57142857142
4574.1,-113918.0
4576.1,-113906.57142857143
4578.1,-113922.2857142857
4580.1,-113974.0
4582.1,-114021.14285714286
4584.1,-114027.57142857142
4586.1,-114011.14285714286
4588.1,-114019.42857142857
4590.1,-114062.99999999999
4592.1,-114099.28571428571
4594.1,-114089.71428571426
4596.1,-114048.71428571429
4598.1,-114024.71428571429
4600.1,-114043.14285714284
4602.1,-114079.42857142855
4604.1,-114092.42857142857
4606.1,-114077.57142857142
4608.1,-114070.0
4610.1,-114093.14285714286
4612.1,-114126.28571428571
4614.1,-114133.28571428571
4616.1,-114107.5714285714
4618.1,-114078.28571428571
4620.1,-114073.57142857142
4622.1,-114085.14285714284
4624.1,-114081.28571428571
4626.1,-114052.85714285714
4628.08,-114024.85714285713
4630.05,-114020.85714285714
4632.03,-114040.28571428571
4634.0,-114071.0
4636.0,-114099.0
4638.0,-114112.2857142857
4640.0,-114118.14285714286
4642.0,-114135.99999999999
4644.0,-114147.85714285713
4646.0,-114086.57142857142
4648.0,-113903.71428571428
4650.0,-113623.14285714286
4652.0,-113298.0
4654.0,-112939.0
4656.0,-112521.42857142858
4658.0,-112057.42857142857
4660.0,-111626.28571428571
4662.0,-111324.14285714286
4664.0,-111196.28571428572
4666.0,-111229.42857142857
4668.0,-111395.71428571428
4670.0,-111684.2857142857
4672.0,-112088.85714285713
4674.0,-112578.71428571428
4676.0,-113083.14285714286
4678.0,-113510.57142857142
4680.0,-113799.0
4682.0,-113957.0
4684.0,-114034.14285714287
4686.0,-114048.71428571428
4688.0,-113982.85714285713
4690.0,-113853.85714285713
4692.0,-113727.99999999999
4694.0,-113647.5714285714
4696.0,-113601.14285714286
4698.0,-113572.14285714287
4700.0,-113558.0
4702.0,-113546.0
4704.0,-113523.42857142855
4706.0,-113507.14285714286
4707.98,-113519.42857142855
4709.95,-113541.57142857143
4711.93,-113536.42857142855
4713.9,-113509.71428571428
4715.9,-113500.28571428571
4717.9,-113512.0
4719.9,-113516.2857142857
4721.9,-113514.14285714284
4723.9,-113526.71428571426
4725.9,-113540.42857142857
4727.9,-113534.85714285713
4729.9,-113530.28571428571
4731.9,-113543.2857142857
4733.9,-113542.71428571429
4735.9,-113505.0
4737.9,-113460.71428571429
4739.9,-113444.42857142858
4741.9,-113444.57142857142
4743.9,-113428.99999999997
4745.9,-113392.28571428568
4747.9,-113359.85714285712
4749.9,-113350.0
4751.9,-113345.71428571429
4753.9,-113316.42857142858
4755.9,-113258.71428571428
4757.9,-113202.0
4759.9,-113178.28571428571
4761.9,-113186.42857142858
4763.9,-113189.99999999999
4765.9,-113159.85714285714
4767.9,-113115.42857142857
4769.9,-113100.57142857142
4771.9,-113120.99999999999
4773.9,-113134.99999999999
4775.9,-113114.14285714286
4777.9,-113081.85714285714
4779.9,-113079.57142857142
4781.9,-113112.57142857142
4783.9,-113146.57142857142
4785.9,-113150.14285714286
4787.88,-113127.28571428571
4789.85,-113104.99999999999
4791.83,-113100.71428571428
4793.8,-113105.42857142857
4795.8,-113098.14285714286
4797.8,-113075.85714285714
4799.8,-113061.14285714286
4801.8,-113073.28571428571
4803.8,-113101.71428571429
4805.8,-113117.42857142858
4807.8,-113103.0
4809.8,-113067.00000000001
4811.8,-113034.28571428571
4813.8,-113021.0
4815.8,-113012.57142857143
4817.8,-112980.28571428571
4819.8,-112927.71428571429
4821.8,-112898.71428571429
4823.8,-112921.0
4825.8,-112962.85714285714
4827.8,-112972.85714285714
4829.8,-112948.14285714286
4831.8,-112930.57142857142
4833.8,-112940.99999999999
4835.8,-112949.57142857142
4837.8,-112917.28571428571
4839.8,-112848.28571428572
4841.8,-112785.57142857143
4843.8,-112760.57142857143
4845.8,-112756.14285714284
4847.8,-112728.57142857143
4849.8,-112665.42857142857
4851.8,-112604.28571428571
4853.8,-112580.0
4855.8,-112579.71428571428
4857.8,-112567.85714285713
4859.8,-112534.28571428571
4861.8,-112497.14285714286
4863.8,-112476.28571428571
4865.7,-112476.14285714284
4867.7,-112478.42857142857
4869.7,-112448.14285714287
4871.7,-112371.0
4873.7,-112283.42857142857
4875.7,-112238.14285714284
4877.7,-112238.14285714284
4879.7,-112232.71428571428
4881.7,-112192.57142857143
4883.7,-112158.42857142857
4885.7,-112187.42857142857
4887.7,-112265.99999999999
4889.7,-112317.28571428571
4891.7,-112297.71428571429
4893.7,-112250.71428571429
4895.7,-112243.42857142857
4897.7,-112277.99999999999
4899.7,-112295.57142857142
4901.7,-112261.28571428571
4903.7,-112211.99999999999
4905.7,-112206.42857142857
4907.7,-112246.57142857142
4909.7,-112276.85714285714
4911.7,-112263.14285714286
4913.7,-112238.99999999999
4915.7,-112256.28571428571
4917.7,-112315.57142857142
4919.7,-112371.71428571429
4921.7,-112394.42857142857
4923.7,-112397.42857142857
4925.7,-112412.0
4927.7,-112450.42857142858
4929.7,-112493.42857142857
4931.7,-112512.14285714286
4933.7,-112503.57142857142
4935.7,-112496.42857142857
4937.7,-112517.85714285714
4939.7,-112562.71428571428
4941.7,-112599.0
4943.7,-112603.71428571429
4945.6,-112589.28571428571
4947.6,-112587.85714285713
4949.6,-112608.14285714286
4951.6,-112620.28571428571
4953.6,-112592.57142857142
4955.6,-112533.57142857142
4957.6,-112484.85714285714
4959.6,-112472.71428571429
4961.6,-112476.42857142857
4963.6,-112458.42857142857
4965.6,-112420.85714285714
4967.6,-112403.71428571429
4969.6,-112424.71428571429
4971.6,-112453.71428571428
4973.6,-112454.71428571428
4975.6,-112430.57142857142
4977.6,-112412.85714285713
4979.6,-112422.85714285714
4981.6,-112448.14285714286
4983.6,-112456.0
4985.6,-112433.14285714286
4987.6,-112406.5714285714
4989.6,-112409.42857142857
4991.6,-112434.0
4993.6,-112436.57142857142
4995.6,-112395.85714285712
4997.6,-112343.71428571428
4999.6,-112325.71428571428
5001.6,-112344.28571428571
5003.6,-112360.14285714284
5005.6,-112344.42857142855
5007.6,-112313.2857142857
5009.6,-112304.0
5011.6,-112330.42857142857
5013.6,-112368.57142857142
5015.6,-112383.42857142857
5017.58,-112367.57142857143
5019.55,-112356.57142857143
5021.53,-112391.0
5023.5,-112457.14285714284
5025.5,-112492.42857142855
5027.5,-112467.85714285713
5029.5,-112429.28571428572
5031.5,-112432.28571428571
5033.5,-112466.14285714286
5035.5,-112475.57142857142
5037.5,-112439.85714285713
5039.5,-112399.85714285713
5041.5,-112402.71428571426
5043.5,-112443.71428571428
5045.5,-112478.14285714284
5047.5,-112478.85714285714
5049.5,-112462.85714285714
5051.5,-112461.28571428571
5053.5,-112480.85714285713
5055.5,-112497.42857142857
5057.5,-112480.85714285713
5059.5,-112430.57142857143
5061.5,-112382.42857142857
5063.5,-112364.71428571428
5065.5,-112358.0
5067.5,-112320.99999999999
5069.5,-112247.57142857142
5071.5,-112172.85714285714
5073.5,-112127.42857142857
5075.5,-112105.42857142857
5077.5,-112079.71428571429
5079.5,-112034.0
5081.5,-111980.71428571428
5083.5,-111950.2857142857
5085.5,-111956.0
5087.5,-111973.14285714284
5089.5,-111964.99999999997
5091.5,-111929.71428571426
5093.5,-111906.71428571426
5095.5,-111924.57142857142
5097.48,-111958.71428571428
5099.45,-111966.85714285713
5101.43,-111957.0
5103.4,-111980.0
5105.4,-112054.14285714286
5107.4,-112138.99999999997
5109.4,-112191.99999999999
5111.4,-112215.0
5113.4,-112239.42857142857
5115.4,-112283.28571428571
5117.4,-112325.57142857143
5119.4,-112328.85714285714
5121.4,-112293.85714285713
5123.4,-112267.42857142857
5125.4,-112280.71428571428
5127.4,-112312.42857142858
5129.4,-112327.57142857143
5131.4,-112323.71428571428
5133.4,-112323.57142857142
5135.4,-112343.42857142855
5137.4,-112376.42857142855
5139.4,-112400.85714285713
5141.4,-112401.71428571428
5143.4,-112383.0
5145.4,-112362.85714285714
5147.4,-112359.71428571428
5149.4,-112372.85714285713
5151.4,-112378.99999999999
5153.4,-112364.14285714284
5155.4,-112350.14285714286
5157.4,-112367.71428571429
5159.4,-112414.42857142855
5161.4,-112458.0
5163.4,-112474.71428571428
5165.4,-112472.0
5167.4,-112479.71428571429
5169.4,-112513.42857142857
5171.4,-112543.42857142855
5173.4,-112520.85714285713
5175.4,-112439.42857142858
5177.38,-112337.0
5179.35,-112226.14285714286
5181.33,-112059.57142857142
5183.3,-111786.5714285714
5185.3,-111414.99999999999
5187.3,-110997.28571428571
5189.3,-110582.42857142858
5191.3,-110198.57142857143
5193.3,-109863.85714285714
5195.3,-109603.0
5197.3,-109467.99999999999
5199.3,-109522.57142857142
5201.3,-109772.85714285713
5203.3,-110146.42857142855
5205.3,-110575.57142857142
5207.3,-111043.14285714286
5209.3,-111514.42857142858
5211.3,-111906.14285714286
5213.3,-112165.99999999999
5215.3,-112311.42857142857
5217.3,-112363.85714285713
5219.3,-112321.85714285714
5221.3,-112218.57142857142
5223.3,-112124.28571428571
5225.3,-112063.71428571426
5227.3,-112000.14285714286
5229.3,-111921.85714285714
5231.3,-111872.0
5233.3,-111868.42857142857
5235.3,-111874.42857142855
5237.3,-111873.71428571428
5239.3,-111891.0
5241.3,-111926.57142857142
5243.3,-111952.99999999999
5245.3,-111971.85714285713
5247.3,-111997.57142857143
5249.3,-112008.71428571429
5251.3,-111981.85714285713
5253.3,-111944.42857142857
5255.3,-111936.99999999999
5257.28,-111950.42857142855
5259.25,-111943.28571428571
5261.23,-111905.42857142855
5263.2,-111874.71428571428
5265.2,-111888.0
5267.2,-111931.14285714284
5269.2,-111953.99999999999
5271.2,-111935.0
5273.2,-111907.42857142855
5275.2,-111910.2857142857
5277.2,-111928.57142857142
5279.2,-111911.57142857142
5281.2,-111843.99999999999
5283.2,-111768.71428571429
5285.2,-111731.2857142857
5287.2,-111730.14285714286
5289.2,-111731.28571428571
5291.2,-111714.0
5293.2,-111688.85714285713
5295.2,-111680.42857142855
5297.2,-111697.71428571428
5299.2,-111721.14285714287
5301.2,-111723.0
5303.2,-111701.57142857143
5305.2,-111684.14285714284
5307.2,-111692.57142857142
5309.2,-111715.57142857142
5311.2,-111723.57142857143
5313.2,-111703.71428571429
5315.2,-111672.85714285714
5317.2,-111656.57142857142
5319.2,-111661.14285714284
5321.2,-111666.85714285713
5323.2,-111651.14285714286
5325.2,-111616.57142857142
5327.2,-111592.85714285713
5329.2,-111599.28571428571
5331.2,-111614.85714285713
5333.2,-111603.85714285713
5335.2,-111567.57142857142
5337.18,-111543.71428571429
5339.15,-111556.28571428572
5341.13,-111584.42857142858
5343.1,-111591.14285714286
5345.1,-111571.71428571429
5347.1,-111560.42857142858
5349.1,-111583.71428571429
5351.1,-111617.42857142857
5353.1,-111613.28571428571
5355.1,-111565.0
5357.1,-111520.71428571429
5359.1,-111521.42857142857
5361.1,-111549.14285714284
5363.1,-111552.2857142857
5365.1,-111514.99999999999
5367.1,-111477.71428571428
5369.1,-111482.14285714284
5371.1,-111514.85714285713
5373.1,-111524.14285714286
5375.1,-111482.28571428571
5377.1,-111413.14285714284
5379.1,-111362.42857142857
5381.1,-111346.0
5383.1,-111333.28571428571
5385.1,-111286.71428571428
5387.1,-111211.71428571429
5389.1,-111151.14285714286
5391.1,-111134.14285714286
5393.1,-111145.2857142857
5395.1,-111144.42857142857
5397.1,-111108.57142857143
5399.1,-111059.71428571429
5401.1,-111042.85714285714
5403.1,-111066.14285714286
5405.1,-111083.57142857142
5407.1,-111057.57142857143
5409.1,-111010.42857142857
5411.1,-110991.28571428571
5413.1,-111009.57142857142
5415.1,-111027.0
5417.08,-111008.28571428571
5419.05,-110965.71428571428
5421.03,-110946.0
5423.0,-110974.14285714286
5425.0,-111018.57142857142
5427.0,-111030.14285714286
5429.0,-111006.14285714286
5431.0,-110991.28571428571
5433.0,-111011.57142857142
5435.0,-111037.42857142857
5437.0,-111027.71428571428
5439.0,-110989.14285714284
5441.0,-110969.42857142857
5443.0,-110997.71428571429
5445.0,-111051.28571428571
5447.0,-111086.14285714284
5449.0,-111086.0
5451.0,-111078.57142857142
5453.0,-111104.28571428571
5455.0,-111163.71428571429
5457.0,-111207.85714285713
5459.0,-111202.99999999999
5461.0,-111186.71428571428
5463.0,-111220.14285714284
5465.0,-111297.5714285714
5467.0,-111356.28571428571
5469.0,-111367.71428571428
5471.0,-111365.71428571429
5473.0,-111386.85714285713
5475.0,-111429.71428571428
5477.0,-111471.85714285713
5479.0,-111494.0
5481.0,-111494.14285714284
5483.0,-111496.14285714286
5485.0,-111529.0
5487.0,-111585.2857142857
5489.0,-111620.28571428571
5491.0,-111607.42857142858
5493.0,-111577.42857142855
5494.9,-111579.2857142857
5496.9,-111609.71428571428
5498.9,-111617.5714285714
5500.9,-111580.14285714284
5502.9,-111538.71428571428
5504.9,-111538.85714285713
5506.9,-111572.14285714286
5508.9,-111597.42857142857
5510.9,-111595.14285714284
5512.9,-111580.14285714284
5514.9,-111578.28571428571
5516.9,-111597.99999999999
5518.9,-111621.0
5520.9,-111619.71428571429
5522.9,-111587.14285714284
5524.9,-111551.0
5526.9,-111551.85714285713
5528.9,-111595.71428571428
5530.9,-111636.57142857142
5532.9,-111631.42857142855
5534.9,-111605.71428571428
5536.9,-111620.85714285714
5538.9,-111678.0
5540.9,-111707.28571428571
5542.9,-111667.42857142855
5544.9,-111604.85714285712
5546.9,-111590.2857142857
5548.9,-111627.85714285713
5550.9,-111658.85714285714
5552.9,-111644.14285714286
5554.9,-111613.85714285713
5556.9,-111622.42857142857
5558.9,-111674.14285714286
5560.9,-111718.71428571429
5562.9,-111717.42857142857
5564.9,-111689.99999999999
5566.9,-111684.99999999999
5568.9,-111716.85714285713
5570.9,-111749.14285714284
5572.9,-111742.85714285714
5574.8,-111708.14285714286
5576.8,-111690.57142857142
5578.8,-111710.0
5580.8,-111739.57142857142
5582.8,-111747.85714285713
5584.8,-111737.28571428571
5586.8,-111729.85714285713
5588.8,-111737.2857142857
5590.8,-111754.99999999999
5592.8,-111768.28571428571
5594.8,-111762.14285714286
5596.8,-111742.42857142857
5598.8,-111739.85714285714
5600.8,-111775.85714285713
5602.8,-111828.99999999999
5604.8,-111854.99999999999
5606.8,-111840.0
5608.8,-111816.57142857142
5610.8,-111815.99999999999
5612.8,-111820.85714285713
5614.8,-111786.42857142857
5616.8,-111707.14285714286
5618.8,-111636.0
5620.8,-111622.57142857142
5622.8,-111645.5714285714
5624.8,-111641.28571428571
5626.8,-111593.71428571429
5628.8,-111552.0
5630.8,-111548.42857142855
5632.8,-111552.42857142857
5634.8,-111525.85714285714
5636.8,-111480.57142857142
5638.8,-111455.14285714284
5640.8,-111465.42857142857
5642.8,-111499.57142857142
5644.8,-111541.14285714284
5646.8,-111577.85714285713
5648.8,-111605.42857142858
5650.8,-111635.57142857142
5652.8,-111687.14285714284
5654.7,-111754.71428571428
5656.7,-111806.42857142857
5658.7,-111828.57142857142
5660.7,-111850.28571428571
5662.7,-111902.57142857143
5664.7,-111971.14285714287
5666.7,-112012.0
5668.7,-112007.0
5670.7,-111987.14285714284
5672.7,-111994.99999999999
5674.7,-112033.57142857142
5676.7,-112064.57142857142
5678.7,-112061.71428571428
5680.7,-112048.42857142855
5682.7,-112070.71428571429
5684.7,-112133.85714285714
5686.7,-112188.57142857142
5688.7,-112190.85714285713
5690.7,-112157.14285714284
5692.7,-112139.85714285713
5694.7,-112159.28571428572
5696.7,-112185.28571428571
5698.7,-112184.42857142855
5700.7,-112163.71428571428
5702.7,-112160.85714285713
5704.7,-112196.28571428571
5706.7,-112242.28571428571
5708.7,-112258.0
5710.7,-112248.14285714286
5712.7,-112252.42857142857
5714.7,-112281.85714285713
5716.7,-112312.0
5718.7,-112334.71428571429
5720.7,-112360.42857142855
5722.7,-112376.42857142857
5724.7,-112355.14285714284
5726.68,-112295.0
5728.65,-112204.0
5730.63,-112052.42857142857
5732.6,-111792.14285714286
5734.6,-111426.71428571428
5736.6,-111017.14285714286
5738.6,-110615.28571428571
5740.6,-110236.57142857143
5742.6,-109900.71428571429
5744.6,-109655.99999999999
5746.6,-109556.85714285713
5748.6,-109635.0
5750.6,-109880.99999999999
5752.6,-110243.85714285713
5754.6,-110667.71428571428
5756.6,-111121.2857142857
5758.6,-111574.85714285713
5760.6,-111973.57142857142
5762.6,-112263.71428571426
5764.6,-112430.85714285713
5766.6,-112497.85714285713
5768.6,-112497.28571428571
5770.6,-112457.14285714286
5772.6,-112398.71428571429
5774.6,-112334.14285714284
5776.6,-112269.2857142857
5778.6,-112219.99999999999
5780.6,-112209.57142857142
5782.6,-112234.71428571428
5784.6,-112256.28571428571
5786.6,-112248.71428571429
5788.6,-112235.85714285714
5790.6,-112256.42857142857
5792.6,-112309.71428571428
5794.6,-112351.71428571428
5796.6,-112344.14285714286
5798.6,-112303.28571428571
5800.6,-112283.57142857142
5802.6,-112304.71428571428
5804.6,-112323.57142857142
5806.58,-112300.28571428571
5808.55,-112257.14285714286
5810.53,-112242.14285714286
5812.5,-112261.28571428571
5814.5,-112278.28571428571
5816.5,-112264.42857142857
5818.5,-112228.99999999999
5820.5,-112200.57142857142
5822.5,-112194.71428571428
5824.5,-112200.71428571429
5826.5,-112196.42857142858
5828.5,-112172.0
5830.5,-112140.85714285714
5832.5,-112125.42857142855
5834.5,-112130.2857142857
5836.5,-112133.2857142857
5838.5,-112113.14285714286
5840.5,-112081.0
5842.5,-112069.71428571426
5844.5,-112091.71428571426
5846.5,-112123.42857142857
5848.5,-112133.57142857142
5850.5,-112115.71428571429
5852.5,-112092.2857142857
5854.5,-112090.85714285713
5856.5,-112110.71428571428
5858.5,-112118.14285714284
5860.5,-112092.57142857142
5862.5,-112067.28571428571
5864.5,-112091.0
5866.5,-112156.71428571428
5868.5,-112204.28571428571
5870.5,-112198.0
5872.5,-112169.0
5874.5,-112168.28571428571
5876.5,-112195.14285714284
5878.5,-112200.5714285714
5880.5,-112161.99999999999
5882.5,-112119.5714285714
5884.5,-112120.0
5886.48,-112154.71428571428
5888.45,-112176.42857142855
5890.43,-112159.71428571428
5892.4,-112123.14285714286
5894.4,-112101.28571428571
5896.4,-112107.42857142857
5898.4,-112121.57142857143
5900.4,-112118.71428571429
5902.4,-112101.71428571428
5904.4,-112095.2857142857
5906.4,-112114.85714285713
5908.4,-112148.99999999999
5910.4,-112164.71428571428
5912.4,-112137.0
5914.4,-112084.57142857142
5916.4,-112056.42857142857
5918.4,-112064.57142857142
5920.4,-112059.14285714286
5922.4,-111998.14285714286
5924.4,-111911.71428571429
5926.4,-111861.85714285714
5928.4,-111859.14285714284
5930.4,-111854.14285714284
5932.4,-111806.42857142855
5934.4,-111737.14285714286
5936.4,-111700.0
5938.4,-111711.42857142857
5940.4,-111731.57142857142
5942.4,-111720.28571428571
5944.4,-111689.85714285713
5946.4,-111683.5714285714
5948.4,-111715.71428571429
5950.4,-111753.71428571429
5952.4,-111759.57142857142
5954.4,-111732.14285714286
5956.4,-111700.99999999999
5958.4,-111690.0
5960.4,-111698.71428571428
5962.4,-111707.85714285714
5964.4,-111699.85714285713
5966.38,-111681.71428571428
5968.35,-111681.28571428571
5970.33,-111706.99999999999
5972.3,-111724.42857142857
5974.3,-111698.85714285713
5976.3,-111649.85714285713
5978.3,-111633.14285714286
5980.3,-111670.42857142857
5982.3,-111725.85714285714
5984.3,-111756.0
5986.3,-111763.57142857142
5988.3,-111784.28571428571
5990.3,-111834.42857142857
5992.3,-111886.42857142858
5994.3,-111902.28571428571
5996.3,-111882.0
5998.3,-111866.99999999999
6000.3,-111891.85714285713
6002.3,-111940.42857142855
6004.3,-111965.42857142857
6006.3,-111948.85714285713
6008.3,-111924.99999999999
6010.3,-111937.0
6012.3,-111984.71428571426
6014.3,-112029.85714285713
6016.3,-112049.14285714286
6018.3,-112063.57142857142
6020.3,-112107.14285714286
6022.3,-112179.71428571428
6024.3,-112245.14285714286
6026.3,-112271.71428571429
6028.3,-112260.28571428571
6030.3,-112236.28571428571
6032.3,-112222.0
6034.3,-112215.85714285713
6036.3,-112195.14285714286
6038.3,-112147.14285714286
6040.3,-112096.28571428571
6042.3,-112083.42857142855
6044.3,-112115.28571428571
6046.28,-112151.0
6048.25,-112153.0
6050.23,-112137.28571428571
6052.2,-112149.71428571428
6054.2,-112195.42857142857
6056.2,-112224.42857142855
6058.2,-112201.42857142858
6060.2,-112159.0
6062.2,-112153.28571428571
6064.2,-112189.28571428571
6066.2,-112219.14285714284
6068.2,-112207.0
6070.2,-112172.71428571428
6072.2,-112161.57142857142
6074.2,-112184.71428571429
6076.2,-112206.42857142858
6078.2,-112196.14285714286
6080.2,-112172.42857142855
6082.2,-112176.99999999999
6084.2,-112217.42857142855
6086.2,-112259.57142857142
6088.2,-112269.42857142858
6090.2,-112247.28571428571
6092.2,-112220.71428571428
6094.2,-112213.71428571429
6096.2,-112223.28571428571
6098.2,-112226.14285714284
6100.2,-112208.0
6102.2,-112184.71428571429
6104.2,-112188.14285714284
6106.2,-112226.57142857143
6108.2,-112266.14285714286
6110.2,-112266.71428571429
6112.2,-112233.42857142858
6114.2,-112210.57142857142
6116.2,-112221.28571428571
6118.2,-112237.14285714286
6120.2,-112218.42857142857
6122.2,-112167.57142857142
6124.2,-112127.2857142857
6126.18,-112129.71428571426
6128.15,-112157.71428571428
6130.13,-112166.14285714284
6132.1,-112142.42857142857
6134.1,-112127.28571428571
6136.1,-112159.14285714286
6138.1,-112215.14285714286
6140.1,-112235.57142857142
6142.1,-112202.57142857143
6144.1,-112161.85714285714
6146.1,-112153.85714285714
6148.1,-112157.2857142857
6150.1,-112128.99999999999
6152.1,-112072.99999999999
6154.1,-112032.42857142857
6156.1,-112028.57142857142
6158.1,-112045.85714285713
6160.1,-112065.99999999999
6162.1,-112080.71428571428
6164.1,-112081.2857142857
6166.1,-112069.42857142855
6168.1,-112066.42857142855
6170.1,-112084.28571428571
6172.1,-112099.71428571429
6174.1,-112085.14285714286
6176.1,-112051.85714285714
6178.1,-112039.71428571428
6180.1,-112065.42857142857
6182.1,-112097.14285714284
6184.1,-112091.0
6186.1,-112051.57142857142
6188.1,-112030.2857142857
6190.1,-112055.57142857142
6192.1,-112089.71428571428
6194.1,-112079.57142857142
6196.1,-112029.14285714284
6198.1,-111994.99999999999
6200.1,-112014.2857142857
6202.1,-112058.57142857142
6204.1,-112067.28571428572
6206.08,-112024.85714285714
6208.05,-111984.85714285713
6210.03,-111996.57142857142
6212.0,-112026.42857142857
6214.0,-112005.57142857142
6216.0,-111940.14285714284
6218.0,-111897.71428571426
6220.0,-111893.28571428571
6222.0,-111878.28571428571
6224.0,-111835.85714285714
6226.0,-111797.71428571429
6228.0,-111770.14285714286
6230.0,-111727.57142857143
6232.0,-111677.85714285714
6234.0,-111661.14285714287
6236.0,-111677.0
6238.0,-111679.0
6240.0,-111654.0
6242.0,-111645.57142857142
6244.0,-111677.99999999999
6246.0,-111719.71428571426
6248.0,-111740.2857142857
6250.0,-111746.14285714286
6252.0,-111750.42857142857
6254.0,-111760.0
6256.0,-111779.42857142858
6258.0,-111794.57142857142
6260.0,-111782.14285714284
6262.0,-111753.71428571428
6264.0,-111746.42857142857
6266.0,-111767.42857142857
6268.0,-111786.42857142857
6270.0,-111779.71428571429
6272.0,-111753.57142857142
6274.0,-111727.99999999999
6276.0,-111712.57142857142
6278.0,-111700.14285714284
6280.0,-111678.42857142857
6282.0,-111646.99999999999
6284.0,-111621.71428571428
6285.98,-111620.14285714287
6287.95,-111641.71428571429
6289.93,-111663.28571428572
6291.9,-111664.42857142855
6293.9,-111658.14285714286
6295.9,-111678.85714285713
6297.9,-111731.28571428571
6299.9,-111773.57142857142
6301.9,-111769.14285714287
6303.9,-111739.85714285714
6305.9,-111738.57142857142
6307.9,-111779.0
6309.9,-111820.42857142857
6311.9,-111826.0
6313.9,-111808.57142857142
6315.9,-111807.2857142857
6317.9,-111831.85714285712
6319.9,-111841.57142857142
6321.9,-111781.57142857142
6323.9,-111635.14285714284
6325.9,-111429.0
6327.9,-111183.71428571428
6329.9,-110879.85714285713
6331.9,-110492.57142857142
6333.9,-110049.14285714284
6335.9,-109623.71428571428
6337.9,-109277.14285714284
6339.9,-109029.28571428571
6341.9,-108893.14285714286
6343.9,-108895.42857142858
6345.9,-109051.0
6347.9,-109350.28571428571
6349.9,-109770.71428571426
6351.9,-110265.71428571428
6353.9,-110749.14285714284
6355.9,-111139.5714285714
6357.9,-111421.99999999999
6359.9,-111626.14285714286
6361.9,-111749.57142857143
6363.8,-111753.85714285714
6365.8,-111642.0
6367.8,-111494.28571428571
6369.8,-111395.14285714284
6371.8,-111349.85714285713
6373.8,-111303.71428571429
6375.8,-111229.28571428571
6377.8,-111161.14285714286
6379.8,-111142.42857142857
6381.8,-111163.85714285714
6383.8,-111173.57142857142
6385.8,-111141.42857142857
6387.8,-111096.14285714286
6389.8,-111084.42857142857
6391.8,-111107.71428571429
6393.8,-111122.71428571429
6395.8,-111103.99999999999
6397.8,-111075.99999999999
6399.8,-111076.14285714286
6401.8,-111108.14285714284
6403.8,-111144.28571428571
6405.8,-111155.0
6407.8,-111132.57142857142
6409.8,-111098.28571428571
6411.8,-111082.85714285713
6413.8,-111086.57142857142
6415.8,-111072.85714285713
6417.8,-111020.0
6419.8,-110959.57142857142
6421.8,-110938.14285714284
6423.8,-110952.85714285714
6425.8,-110956.28571428571
6427.8,-110921.0
6429.8,-110870.14285714286
6431.8,-110839.71428571429
6433.8,-110833.28571428572
6435.8,-110821.71428571429
6437.8,-110778.85714285713
6439.8,-110716.14285714284
6441.8,-110675.42857142855
6443.7,-110682.28571428571
6445.7,-110710.57142857143
6447.7,-110712.42857142857
6449.7,-110682.0
6451.7,-110663.14285714286
6453.7,-110682.85714285713
6455.7,-110707.28571428571
6457.7,-110688.28571428571
6459.7,-110632.28571428572
6461.7,-110589.14285714287
6463.7,-110582.71428571426
6465.7,-110585.99999999997
6467.7,-110559.99999999999
6469.7,-110495.57142857142
6471.7,-110418.57142857142
6473.7,-110362.14285714286
6475.7,-110330.42857142857
6477.7,-110293.71428571429
6479.7,-110229.28571428571
6481.7,-110158.71428571428
6483.7,-110127.42857142857
6485.7,-110145.71428571428
6487.7,-110168.85714285713
6489.7,-110149.14285714286
6491.7,-110093.85714285713
6493.7,-110049.28571428571
6495.7,-110036.14285714284
6497.7,-110027.2857142857
6499.7,-109988.14285714284
6501.7,-109918.85714285713
6503.7,-109856.28571428571
6505.7,-109838.57142857143
6507.7,-109857.99999999999
6509.7,-109861.57142857142
6511.7,-109817.71428571429
6513.7,-109761.85714285713
6515.68,-109745.57142857142
6517.65,-109761.0
6519.63,-109753.42857142857
6521.6,-109700.99999999999
6523.6,-109643.28571428571
6525.6,-109625.71428571428
6527.6,-109638.14285714284
6529.6,-109628.42857142857
6531.6,-109568.0
6533.6,-109486.28571428571
6535.6,-109432.28571428571
6537.6,-109416.0
6539.6,-109402.85714285714
6541.6,-109364.14285714286
6543.6,-109311.14285714286
6545.6,-109275.42857142857
6547.6,-109268.85714285714
6549.6,-109271.85714285713
6551.6,-109256.0
6553.6,-109212.42857142857
6555.6,-109162.85714285713
6557.6,-109140.57142857142
6559.6,-109151.85714285713
6561.6,-109161.42857142858
6563.6,-109132.71428571429
6565.6,-109081.57142857143
6567.6,-109064.71428571428
6569.6,-109101.99999999999
6571.6,-109139.42857142855
6573.6,-109116.14285714286
6575.6,-109047.28571428571
6577.6,-109000.28571428571
6579.6,-108999.14285714287
6581.6,-108992.71428571429
6583.6,-108927.71428571428
6585.6,-108823.5714285714
6587.6,-108748.99999999999
6589.6,-108731.42857142857
6591.6,-108727.57142857142
6593.6,-108691.85714285714
6595.58,-108638.71428571429
6597.55,-108614.85714285713
6599.53,-108637.42857142857
6601.5,-108681.71428571429
6603.5,-108712.14285714284
6605.5,-108713.2857142857
6607.5,-108703.0
6609.5,-108712.28571428571
6611.5,-108743.28571428571
6613.5,-108764.28571428572
6615.5,-108754.57142857142
6617.5,-108734.57142857142
6619.5,-108738.85714285714
6621.5,-108773.14285714286
6623.5,-108809.0
6625.5,-108817.71428571428
6627.5,-108800.99999999999
6629.5,-108788.14285714286
6631.5,-108802.99999999999
6633.5,-108835.42857142855
6635.5,-108850.0
6637.5,-108828.71428571429
6639.5,-108798.0
6641.5,-108797.14285714284
6643.5,-108821.85714285713
6645.5,-108826.85714285713
6647.5,-108790.85714285713
6649.5,-108748.28571428571
6651.5,-108741.28571428571
6653.5,-108761.0
6655.5,-108762.28571428571
6657.5,-108725.85714285713
6659.5,-108680.71428571426
6661.5,-108662.28571428571
6663.5,-108669.28571428571
6665.5,-108670.99999999999
6667.5,-108649.99999999999
6669.5,-108623.14285714286
6671.5,-108617.85714285714
6673.5,-108638.42857142858
6675.48,-108666.57142857143
6677.45,-108681.71428571428
6679.43,-108672.71428571428
6681.4,-108644.5714285714
6683.4,-108614.99999999999
6685.4,-108591.85714285714
6687.4,-108558.71428571429
6689.4,-108497.0
6691.4,-108415.42857142855
6693.4,-108345.28571428571
6695.4,-108309.42857142855
6697.4,-108299.71428571428
6699.4,-108286.42857142855
6701.4,-108255.99999999997
6703.4,-108230.14285714286
6705.4,-108232.71428571429
6707.4,-108245.71428571428
6709.4,-108221.42857142857
6711.4,-108146.71428571429
6713.4,-108075.0
6715.4,-108062.14285714286
6717.4,-108083.57142857142
6719.4,-108073.42857142857
6721.4,-108039.28571428571
6723.4,-108047.85714285713
6725.4,-108101.99999999999
6727.4,-108136.0
6729.4,-108128.57142857142
6731.4,-108118.85714285713
6733.4,-108118.14285714284
6735.4,-108101.57142857142
6737.4,-108077.85714285714
6739.4,-108084.85714285713
6741.4,-108117.28571428571
6743.4,-108128.85714285713
6745.4,-108107.71428571426
6747.4,-108090.14285714284
6749.4,-108094.42857142858
6751.4,-108099.28571428572
6753.4,-108088.42857142857
6755.38,-108066.85714285714
6757.35,-108042.85714285713
6759.33,-108030.42857142857
6761.3,-108041.71428571428
6763.3,-108053.71428571428
6765.3,-108031.28571428571
6767.3,-107990.28571428571
6769.3,-107979.42857142857
6771.3,-108000.71428571429
6773.3,-108007.85714285714
6775.3,-107982.57142857143
6777.3,-107959.85714285714
6779.3,-107970.28571428571
6781.3,-107998.42857142857
6783.3,-108013.85714285713
6785.3,-108011.71428571428
6787.3,-108005.42857142858
6789.3,-108003.71428571429
6791.3,-108007.28571428571
6793.3,-108006.42857142857
6795.3,-107978.42857142857
6797.3,-107910.99999999999
6799.3,-107829.14285714286
6801.3,-107775.28571428571
6803.3,-107759.71428571428
6805.3,-107749.14285714286
6807.3,-107711.85714285713
6809.3,-107664.71428571429
6811.3,-107653.14285714284
6813.3,-107686.0
6815.3,-107715.14285714286
6817.3,-107698.28571428571
6819.3,-107653.2857142857
6821.3,-107629.85714285713
6823.3,-107642.85714285714
6825.3,-107658.14285714284
6827.3,-107635.71428571426
6829.3,-107577.71428571428
6831.3,-107524.57142857142
6833.3,-107506.57142857142
6835.28,-107508.28571428571
6837.25,-107493.57142857143
6839.23,-107454.42857142855
6841.2,-107421.14285714284
6843.2,-107421.42857142855
6845.2,-107442.14285714286
6847.2,-107439.57142857142
6849.2,-107391.85714285714
6851.2,-107326.14285714287
6853.2,-107284.71428571429
6855.2,-107272.28571428571
6857.2,-107255.71428571429
6859.2,-107208.42857142857
6861.2,-107142.42857142858
6863.2,-107090.71428571428
6865.2,-107067.85714285714
6867.2,-107053.57142857143
6869.2,-107016.14285714286
6871.2,-106950.85714285713
6873.2,-106891.14285714284
6875.2,-106872.99999999999
6877.2,-106890.99999999999
6879.2,-106902.42857142855
6881.2,-106882.28571428571
6883.2,-106858.71428571429
6885.2,-106877.14285714286
6887.2,-106937.57142857142
6889.2,-106989.99999999999
6891.2,-106998.42857142858
6893.2,-106987.28571428571
6895.2,-107000.14285714286
6897.2,-107030.57142857142
6899.2,-107031.85714285713
6901.2,-106989.14285714286
6903.2,-106941.28571428571
6905.2,-106927.85714285713
6907.2,-106944.14285714284
6909.2,-106952.42857142857
6911.2,-106927.14285714287
6913.1,-106883.71428571429
6915.1,-106857.14285714286
6917.1,-106855.2857142857
6919.1,-106851.14285714284
6921.1,-106820.2857142857
6923.1,-106768.57142857142
6925.1,-106724.85714285713
6927.1,-106714.42857142858
6929.1,-106732.42857142857
6931.1,-106743.85714285713
6933.1,-106723.14285714284
6935.1,-106689.42857142855
6937.1,-106686.28571428572
6939.1,-106727.71428571428
6941.1,-106780.42857142855
6943.1,-106805.2857142857
6945.1,-106807.42857142857
6947.1,-106829.85714285714
6949.1,-106892.71428571429
6951.1,-106955.85714285713
6953.1,-106959.42857142857
6955.1,-106890.28571428572
6957.1,-106784.0
6959.1,-106660.71428571428
6961.1,-106483.57142857142
6963.1,-106197.85714285714
6965.1,-105807.28571428571
6967.1,-105384.71428571428
6969.1,-104993.85714285713
6971.1,-104634.0
6973.1,-104287.99999999999
6975.1,-104000.71428571429
6977.1,-103865.57142857142
6979.1,-103934.57142857143
6981.1,-104173.57142857142
6983.1,-104517.14285714284
6985.08,-104932.99999999999
6987.05,-105409.57142857143
6989.03,-105901.14285714286
6991.0,-106326.28571428571
6993.0,-106624.14285714286
6995.0,-106787.85714285713
6997.0,-106842.28571428571
6999.0,-106819.42857142857
7001.0,-106759.85714285713
7003.0,-106696.57142857142
7005.0,-106628.14285714286
7007.0,-106540.57142857142
7009.0,-106457.71428571428
7011.0,-106419.42857142857
7013.0,-106415.85714285713
7015.0,-106394.71428571428
7017.0,-106338.71428571428
7019.0,-106289.42857142857
7021.0,-106289.28571428571
7023.0,-106324.71428571429
7025.0,-106346.28571428571
7027.0,-106330.99999999999
7029.0,-106307.28571428571
7031.0,-106311.2857142857
7033.0,-106336.0
7035.0,-106337.28571428571
7037.0,-106288.57142857143
7039.0,-106216.0
7041.0,-106174.28571428571
7043.0,-106180.85714285713
7045.0,-106190.71428571428
7047.0,-106160.0
7049.0,-106114.0
7051.0,-106109.14285714286
7053.0,-106147.14285714286
7055.0,-106173.14285714286
7057.0,-106152.99999999999
7059.0,-106109.14285714286
7061.0,-106080.71428571429
7063.0,-106080.71428571429
7064.98,-106091.57142857143
7066.95,-106084.2857142857
7068.93,-106044.14285714284
7070.9,-105991.5714285714
7072.9,-105965.57142857142
7074.9,-105975.57142857142
7076.9,-105984.14285714286
7078.9,-105957.14285714286
7080.9,-105913.71428571428
7082.9,-105903.71428571428
7084.9,-105937.14285714286
7086.9,-105967.71428571428
7088.9,-105950.85714285714
7090.9,-105899.42857142857
7092.9,-105868.0
7094.9,-105889.0
7096.9,-105932.71428571429
7098.9,-105944.2857142857
7100.9,-105917.57142857142
7102.9,-105904.57142857143
7104.9,-105936.57142857143
7106.9,-105973.28571428571
7108.9,-105957.85714285713
7110.9,-105893.2857142857
7112.9,-105830.14285714286
7114.9,-105797.0
7116.9,-105772.00000000001
7118.9,-105719.85714285713
7120.9,-105639.28571428571
7122.9,-105566.42857142858
7124.9,-105531.28571428571
7126.9,-105524.57142857142
7128.9,-105515.14285714286
7130.9,-105489.99999999999
7132.9,-105463.14285714286
7134.9,-105455.71428571428
7136.9,-105474.28571428571
7138.9,-105501.2857142857
7140.9,-105504.28571428571
7142.9,-105469.2857142857
7144.88,-105424.85714285714
7146.85,-105412.71428571429
7148.83,-105427.85714285713
7150.8,-105418.71428571428
7152.8,-105360.42857142857
7154.8,-105295.42857142858
7156.8,-105275.42857142857
7158.8,-105290.28571428571
7160.8,-105286.0
7162.8,-105238.99999999999
7164.8,-105182.85714285713
7166.8,-105159.2857142857
7168.8,-105164.42857142857
7170.8,-105158.71428571428
7172.8,-105122.42857142857
7174.8,-105078.14285714286
7176.8,-105056.99999999999
7178.8,-105061.57142857142
7180.8,-105069.2857142857
7182.8,-105062.14285714284
7184.8,-105047.57142857143
7186.8,-105047.71428571428
7188.8,-105071.0
7190.8,-105101.42857142858
7192.8,-105115.57142857142
7194.8,-105105.57142857142
7196.8,-105087.42857142855
7198.8,-105085.71428571428
7200.8,-105108.57142857142
7202.8,-105136.57142857142
7204.8,-105143.2857142857
7206.8,-105127.85714285712
7208.8,-105119.57142857142
7210.8,-105140.57142857142
7212.8,-105171.71428571428
7214.8,-105170.99999999999
7216.8,-105132.28571428571
7218.8,-105102.14285714286
7220.8,-105121.2857142857
7222.8,-105166.14285714284
7224.78,-105172.28571428571
7226.75,-105118.85714285714
7228.73,-105063.71428571428
7230.7,-105066.99999999999
7232.7,-105099.57142857142
7234.7,-105087.42857142857
7236.7,-105035.14285714284
7238.7,-105019.85714285713
7240.7,-105061.57142857142
7242.7,-105097.71428571428
7244.7,-105094.85714285714
7246.7,-105090.71428571429
7248.7,-105112.0
7250.7,-105133.85714285713
7252.7,-105138.71428571428
7254.7,-105147.14285714286
7256.7,-105169.28571428571
7258.7,-105180.14285714284
7260.7,-105166.85714285713
7262.7,-105152.57142857142
7264.7,-105155.99999999999
7266.7,-105170.14285714286
7268.7,-105189.14285714286
7270.7,-105212.57142857143
7272.7,-105234.42857142857
7274.7,-105262.71428571429
7276.7,-105315.57142857143
7278.7,-105371.14285714286
7280.7,-105379.85714285713
7282.7,-105346.14285714284
7284.7,-105329.85714285713
7286.7,-105349.14285714284
7288.7,-105349.57142857142
7290.7,-105294.57142857142
7292.7,-105228.85714285713
7294.7,-105214.42857142855
7296.7,-105242.71428571426
7298.7,-105257.85714285713
7300.7,-105241.71428571428
7302.7,-105226.28571428571
7304.68,-105234.42857142857
7306.65,-105253.57142857142
7308.63,-105262.28571428571
7310.6,-105249.42857142857
7312.6,-105214.42857142858
7314.6,-105173.0
7316.6,-105154.0
7318.6,-105171.14285714286
7320.6,-105200.14285714286
7322.6,-105205.2857142857
7324.6,-105190.14285714284
7326.6,-105197.85714285713
7328.6,-105245.99999999999
7330.6,-105291.85714285713
7332.6,-105289.42857142858
7334.6,-105252.57142857143
7336.6,-105230.0
7338.6,-105240.28571428571
7340.6,-105256.57142857142
7342.6,-105244.14285714286
7344.6,-105202.5714285714
7346.6,-105167.42857142857
7348.6,-105164.85714285714
7350.6,-105173.85714285713
7352.6,-105154.28571428571
7354.6,-105101.71428571428
7356.6,-105051.28571428571
7358.6,-105029.0
7360.6,-105021.14285714286
7362.6,-104996.85714285714
7364.6,-104950.42857142857
7366.6,-104909.71428571429
7368.6,-104900.28571428571
7370.6,-104913.0
7372.6,-104917.71428571428
7374.6,-104900.71428571428
7376.6,-104880.42857142857
7378.6,-104887.14285714286
7380.6,-104931.28571428571
7382.6,-104989.85714285714
7384.58,-105028.42857142857
7386.55,-105039.2857142857
7388.53,-105049.85714285713
7390.5,-105083.71428571426
7392.5,-105124.28571428571
7394.5,-105130.0
7396.5,-105086.57142857142
7398.5,-105031.57142857142
7400.5,-105018.71428571428
7402.5,-105057.42857142855
7404.5,-105099.99999999999
7406.5,-105103.0
7408.5,-105087.0
7410.5,-105105.14285714286
7412.5,-105162.71428571428
7414.5,-105203.57142857142
7416.5,-105182.0
7418.5,-105122.0
7420.5,-105087.42857142857
7422.5,-105104.14285714286
7424.5,-105133.0
7426.5,-105129.14285714286
7428.5,-105103.14285714286
7430.5,-105101.71428571428
7432.5,-105142.42857142857
7434.5,-105194.71428571428
7436.5,-105218.14285714284
7438.5,-105204.85714285712
7440.5,-105186.14285714284
7442.5,-105196.99999999999
7444.5,-105229.85714285713
7446.5,-105242.14285714286
7448.5,-105212.85714285713
7450.5,-105168.0
7452.5,-105143.57142857143
7454.5,-105144.14285714286
7456.5,-105140.28571428571
7458.5,-105102.42857142857
7460.5,-105040.28571428571
7462.4,-105002.85714285713
7464.4,-105017.57142857142
7466.4,-105044.71428571428
7468.4,-105024.85714285713
7470.4,-104961.14285714287
7472.4,-104915.2857142857
7474.4,-104921.99999999999
7476.4,-104943.14285714286
7478.4,-104923.71428571429
7480.4,-104870.28571428571
7482.4,-104843.71428571428
7484.4,-104880.85714285714
7486.4,-104949.28571428571
7488.4,-104990.0
7490.4,-104987.42857142855
7492.4,-104979.71428571426
7494.4,-105001.85714285714
7496.4,-105035.71428571428
7498.4,-105032.85714285713
7500.4,-104982.71428571429
7502.4,-104930.14285714286
7504.4,-104915.28571428571
7506.4,-104927.85714285713
7508.4,-104931.2857142857
7510.4,-104906.99999999999
7512.4,-104864.42857142857
7514.4,-104828.28571428571
7516.4,-104816.71428571426
7518.4,-104817.57142857142
7520.4,-104797.99999999999
7522.4,-104752.71428571428
7524.4,-104720.14285714284
7526.4,-104733.85714285713
7528.4,-104778.14285714286
7530.4,-104808.85714285714
7532.4,-104806.71428571428
7534.4,-104798.28571428571
7536.4,-104825.57142857142
7538.4,-104894.14285714286
7540.4,-104959.0
7542.3,-104981.85714285714
7544.3,-104985.85714285714
7546.3,-105021.71428571429
7548.3,-105088.71428571428
7550.3,-105131.85714285713
7552.3,-105119.57142857142
7554.3,-105086.99999999999
7556.3,-105086.0
7558.3,-105120.28571428571
7560.3,-105149.0
7562.3,-105143.0
7564.3,-105116.85714285714
7566.3,-105104.99999999999
7568.3,-105118.28571428571
7570.3,-105130.57142857142
7572.3,-105110.14285714286
7574.3,-105060.0
7576.3,-105016.14285714284
7578.3,-105005.14285714284
7580.3,-105015.57142857142
7582.3,-105016.42857142855
7584.3,-104997.85714285712
7586.3,-104982.85714285713
7588.3,-105000.71428571428
7590.3,-105053.71428571428
7592.3,-105113.42857142857
7594.3,-105148.85714285714
7596.3,-105161.57142857143
7598.3,-105182.28571428571
7600.3,-105224.14285714286
7602.3,-105247.14285714286
7604.3,-105191.42857142855
7606.3,-105043.28571428571
7608.3,-104843.71428571429
7610.3,-104622.99999999999
7612.3,-104352.2857142857
7614.28,-103987.85714285712
7616.25,-103554.0
7618.23,-103144.85714285714
7620.2,-102832.85714285713
7622.2,-102613.71428571429
7624.2,-102469.57142857142
7626.2,-102441.57142857142
7628.2,-102592.99999999999
7630.2,-102925.42857142857
7632.2,-103373.28571428571
7634.2,-103860.28571428571
7636.2,-104333.85714285713
7638.2,-104760.85714285713
7640.2,-105116.14285714284
7642.2,-105373.42857142858
7644.2,-105508.42857142857
7646.2,-105518.14285714286
7648.2,-105438.14285714286
7650.2,-105330.57142857143
7652.2,-105240.14285714286
7654.2,-105164.71428571428
7656.2,-105080.57142857142
7658.2,-104990.42857142857
7660.2,-104928.42857142858
7662.2,-104920.85714285714
7664.2,-104953.71428571429
7666.2,-104982.85714285714
7668.2,-104978.28571428571
7670.2,-104960.85714285714
7672.2,-104976.42857142857
7674.2,-105025.42857142857
7676.2,-105051.42857142857
7678.2,-105019.42857142857
7680.2,-104969.0
7682.2,-104957.57142857142
7684.2,-104980.42857142855
7686.2,-104985.42857142857
7688.2,-104948.28571428571
7690.2,-104898.14285714286
7692.2,-104871.28571428571
7694.18,-104868.0
7696.15,-104863.85714285713
7698.13,-104846.85714285713
7700.1,-104828.85714285713
7702.1,-104827.2857142857
7704.1,-104846.71428571429
7706.1,-104876.85714285714
7708.1,-104899.0
7710.1,-104896.2857142857
7712.1,-104869.2857142857
7714.1,-104841.2857142857
7716.1,-104834.42857142857
7718.1,-104839.99999999999
7720.1,-104828.71428571429
7722.1,-104793.42857142857
7724.1,-104764.14285714284
7726.1,-104772.85714285713
7728.1,-104810.0
7730.1,-104827.14285714284
7732.1,-104797.85714285714
7734.1,-104765.57142857142
7736.1,-104786.42857142858
7738.1,-104833.57142857142
7740.1,-104831.57142857142
7742.1,-104779.0
7744.1,-104748.14285714284
7746.1,-104764.85714285713
7748.1,-104783.42857142857
7750.1,-104777.0
7752.1,-104767.71428571429
7754.1,-104769.28571428571
7756.1,-104767.71428571428
7758.1,-104758.85714285713
7760.1,-104755.57142857142
7762.1,-104753.14285714286
7764.1,-104727.28571428572
7766.1,-104677.71428571429
7768.1,-104633.42857142855
7770.1,-104604.2857142857
7772.1,-104570.99999999999
7774.08,-104528.71428571428
7776.05,-104490.2857142857
7778.03,-104459.57142857142
7780.0,-104442.85714285714
7782.0,-104454.0
7784.0,-104475.57142857142
7786.0,-104465.14285714286
7788.0,-104420.57142857142
7790.0,-104384.42857142857
7792.0,-104372.28571428571
7794.0,-104349.28571428572
7796.0,-104288.85714285714
7798.0,-104217.0
7800.0,-104182.14285714284
7802.0,-104195.14285714286
7804.0,-104215.42857142855
7806.0,-104201.57142857142
7808.0,-104163.28571428571
7810.0,-104143.71428571428
7812.0,-104156.85714285713
7814.0,-104169.85714285714
7816.0,-104151.14285714287
7818.0,-104109.42857142858
7820.0,-104076.85714285714
7822.0,-104073.28571428571
7824.0,-104090.71428571428
7826.0,-104101.14285714284
7828.0,-104081.85714285713
7830.0,-104042.57142857143
7832.0,-104017.2857142857
7834.0,-104020.99999999999
7836.0,-104024.57142857142
7838.0,-103992.85714285713
7840.0,-103936.85714285713
7842.0,-103906.14285714287
7844.0,-103922.85714285714
7846.0,-103951.14285714286
7848.0,-103945.0
7850.0,-103907.14285714284
7852.0,-103877.42857142857
7853.98,-103879.57142857142
7855.95,-103896.28571428572
7857.93,-103896.14285714286
7859.9,-103874.28571428571
7861.9,-103861.85714285713
7863.9,-103886.28571428571
7865.9,-103931.85714285713
7867.9,-103957.42857142855
7869.9,-103947.85714285713
7871.9,-103925.85714285713
7873.9,-103917.85714285714
7875.9,-103927.85714285713
7877.9,-103943.14285714284
7879.9,-103950.99999999999
7881.9,-103952.57142857143
7883.9,-103967.42857142857
7885.9,-104014.71428571428
7887.9,-104082.85714285713
7889.9,-104132.71428571428
7891.9,-104141.28571428571
7893.9,-104132.14285714286
7895.9,-104145.28571428571
7897.9,-104181.0
7899.9,-104197.28571428571
7901.9,-104172.57142857142
7903.9,-104143.71428571426
7905.9,-104163.42857142855
7907.9,-104229.28571428568
7909.9,-104283.85714285713
7911.9,-104287.42857142855
7913.9,-104269.71428571428
7915.9,-104288.0
7917.9,-104348.14285714287
7919.9,-104395.42857142857
7921.9,-104391.71428571429
7923.9,-104367.85714285714
7925.9,-104376.28571428572
7927.9,-104416.57142857143
7929.9,-104440.42857142855
7931.9,-104416.28571428571
7933.88,-104366.5714285714
7935.85,-104341.85714285713
7937.83,-104366.42857142857
7939.8,-104412.57142857142
7941.8,-104435.28571428571
7943.8,-104429.85714285714
7945.8,-104434.14285714286
7947.8,-104469.85714285714
7949.8,-104511.85714285714
7951.8,-104523.14285714284
7953.8,-104500.14285714286
7955.8,-104471.57142857142
7957.8,-104464.99999999999
7959.8,-104480.14285714284
7961.8,-104490.14285714284
7963.8,-104467.42857142857
7965.8,-104416.57142857142
7967.8,-104376.85714285713
7969.8,-104378.85714285713
7971.8,-104401.71428571428
7973.8,-104396.71428571428
7975.8,-104357.71428571428
7977.8,-104336.71428571428
7979.8,-104371.57142857142
7981.8,-104426.14285714284
7983.8,-104436.14285714286
7985.8,-104400.14285714284
7987.8,-104381.42857142855
7989.8,-104415.57142857142
7991.8,-104459.42857142855
7993.8,-104453.14285714284
7995.8,-104402.28571428571
7997.8,-104365.42857142857
7999.8,-104373.57142857142
8001.8,-104397.5714285714
8003.8,-104400.42857142857
8005.8,-104386.57142857142
8007.8,-104383.14285714286
8009.8,-104399.71428571428
8011.8,-104424.5714285714
8013.78,-104440.71428571426
8015.75,-104435.28571428572
8017.73,-104414.0
8019.7,-104407.42857142857
8021.7,-104441.71428571429
8023.7,-104501.85714285713
8025.7,-104545.71428571428
8027.7,-104555.71428571429
8029.7,-104558.85714285713
8031.7,-104585.85714285713
8033.7,-104626.42857142857
8035.7,-104640.42857142855
8037.7,-104611.85714285713
8039.7,-104575.85714285714
8041.7,-104579.0
8043.7,-104621.28571428571
8045.7,-104654.57142857142
8047.7,-104645.14285714286
8049.7,-104619.14285714286
8051.7,-104630.28571428571
8053.7,-104684.85714285714
8055.7,-104728.85714285714
8057.7,-104722.57142857143
8059.7,-104699.57142857142
8061.7,-104719.42857142858
8063.7,-104782.0
8065.7,-104828.71428571429
8067.7,-104824.14285714286
8069.7,-104795.0
8071.7,-104784.57142857142
8073.7,-104799.14285714283
8075.7,-104807.14285714284
8077.7,-104779.0
8079.7,-104722.42857142855
8081.7,-104676.71428571428
8083.7,-104666.85714285714
8085.7,-104672.57142857142
8087.7,-104655.57142857142
8089.7,-104609.57142857142
8091.7,-104567.42857142855
8093.68,-104558.14285714284
8095.65,-104567.99999999999
8097.63,-104559.42857142857
8099.6,-104522.0
8101.6,-104485.85714285713
8103.6,-104480.85714285714
8105.6,-104503.0
8107.6,-104524.14285714286
8109.6,-104524.28571428571
8111.6,-104510.0
8113.6,-104511.28571428571
8115.6,-104547.71428571429
8117.6,-104593.57142857143
8119.6,-104600.14285714286
8121.6,-104563.42857142855
8123.6,-104537.14285714284
8125.6,-104561.14285714286
8127.6,-104606.0
8129.6,-104615.42857142857
8131.6,-104584.28571428571
8133.6,-104561.99999999999
8135.6,-104583.28571428572
8137.6,-104624.57142857142
8139.6,-104640.85714285713
8141.6,-104623.57142857142
8143.6,-104604.28571428572
8145.6,-104609.57142857143
8147.6,-104631.57142857142
8149.6,-104640.0
8151.6,-104614.57142857142
8153.6,-104568.14285714286
8155.6,-104537.42857142857
8157.6,-104540.42857142857
8159.6,-104551.71428571429
8161.6,-104536.14285714284
8163.6,-104496.2857142857
8165.6,-104465.85714285713
8167.6,-104463.42857142855
8169.6,-104469.99999999997
8171.6,-104450.71428571429
8173.58,-104394.42857142857
8175.55,-104331.14285714286
8177.53,-104303.99999999999
8179.5,-104319.28571428571
8181.5,-104340.42857142857
8183.5,-104341.14285714284
8185.5,-104346.99999999999
8187.5,-104402.0
8189.5,-104503.42857142857
8191.5,-104598.2857142857
8193.5,-104650.14285714286
8195.5,-104681.71428571429
8197.5,-104728.14285714286
8199.5,-104776.57142857143
8201.5,-104787.42857142858
8203.5,-104754.28571428571
8205.5,-104705.14285714286
8207.5,-104665.57142857142
8209.5,-104643.71428571428
8211.5,-104631.57142857142
8213.5,-104610.42857142858
8215.5,-104574.42857142858
8217.5,-104546.71428571429
8219.5,-104552.42857142855
8221.5,-104582.71428571428
8223.5,-104603.71428571426
8225.5,-104597.28571428571
8227.5,-104577.28571428571
8229.5,-104571.28571428572
8231.5,-104594.0
8233.5,-104631.71428571428
8235.5,-104647.0
8237.5,-104621.42857142858
8239.5,-104598.28571428571
8241.5,-104639.14285714284
8243.5,-104728.71428571426
8245.5,-104790.0
8247.5,-104804.42857142858
8249.5,-104830.57142857143
8251.5,-104892.42857142857
8253.48,-104942.71428571426
8255.45,-104940.14285714284
8257.43,-104883.28571428571
8259.4,-104771.42857142857
8261.4,-104595.85714285713
8263.4,-104359.57142857142
8265.4,-104065.71428571426
8267.4,-103704.5714285714
8269.4,-103287.57142857142
8271.4,-102870.0
8273.4,-102509.71428571428
8275.4,-102230.14285714284
8277.4,-102055.14285714284
8279.4,-102031.14285714284
8281.4,-102176.14285714286
8283.4,-102459.71428571429
8285.4,-102856.85714285713
8287.4,-103351.0
8289.4,-103874.42857142855
8291.4,-104326.2857142857
8293.4,-104664.57142857142
8295.4,-104914.28571428571
8297.4,-105087.71428571429
8299.4,-105157.71428571429
8301.4,-105118.14285714286
8303.4,-105024.28571428571
8305.4,-104950.0
8307.4,-104918.57142857142
8309.4,-104896.85714285713
8311.4,-104853.2857142857
8313.4,-104801.28571428571
8315.4,-104777.71428571428
8317.4,-104790.28571428571
8319.4,-104804.57142857142
8321.4,-104788.85714285714
8323.4,-104754.28571428571
8325.4,-104730.85714285713
8327.4,-104725.42857142855
8329.4,-104721.71428571429
8331.3,-104703.42857142857
8333.3,-104665.14285714284
8335.3,-104621.85714285713
8337.3,-104604.0
8339.3,-104621.85714285714
8341.3,-104645.71428571428
8343.3,-104646.14285714284
8345.3,-104634.57142857142
8347.3,-104642.28571428572
8349.3,-104672.85714285714
8351.3,-104697.14285714286
8353.3,-104689.71428571428
8355.3,-104661.85714285713
8357.3,-104652.57142857143
8359.3,-104684.0
8361.3,-104731.0
8363.3,-104747.28571428571
8365.3,-104723.0
8367.3,-104699.99999999999
8369.3,-104713.28571428571
8371.3,-104738.28571428571
8373.3,-104725.57142857142
8375.3,-104673.85714285714
8377.3,-104631.28571428572
8379.3,-104627.57142857143
8381.3,-104640.71428571429
8383.3,-104638.42857142855
8385.3,-104621.71428571428
8387.3,-104615.28571428571
8389.3,-104632.14285714286
8391.3,-104661.42857142857
8393.3,-104680.42857142857
8395.3,-104670.71428571428
8397.3,-104634.0
8399.3,-104596.42857142858
8401.3,-104583.42857142857
8403.28,-104589.14285714286
8405.25,-104585.0
8407.23,-104560.28571428571
8409.2,-104539.28571428571
8411.2,-104550.71428571428
8413.2,-104587.28571428571
8415.2,-104605.85714285714
8417.2,-104574.71428571429
8419.2,-104516.85714285713
8421.2,-104489.42857142857
8423.2,-104512.42857142858
8425.2,-104537.28571428571
8427.2,-104510.0
8429.2,-104450.42857142857
8431.2,-104428.99999999999
8433.2,-104466.2857142857
8435.2,-104503.14285714286
8437.2,-104485.71428571428
8439.2,-104436.71428571428
8441.2,-104414.99999999999
8443.2,-104432.71428571429
8445.2,-104446.71428571429
8447.2,-104419.71428571428
8449.2,-104364.71428571428
8451.2,-104324.14285714286
8453.2,-104318.85714285714
8455.2,-104325.85714285713
8457.2,-104309.85714285714
8459.2,-104269.71428571429
8461.2,-104241.57142857142
8463.2,-104251.14285714284
8465.2,-104280.57142857142
8467.2,-104294.71428571428
8469.2,-104284.14285714284
8471.2,-104267.42857142857
8473.2,-104262.0
8475.2,-104266.14285714284
8477.2,-104261.57142857142
8479.2,-104232.42857142857
8481.2,-104187.28571428571
8483.18,-104156.71428571429
8485.15,-104156.99999999999
8487.13,-104167.85714285713
8489.1,-104154.99999999999
8491.1,-104113.0
8493.1,-104075.42857142858
8495.1,-104076.42857142857
8497.1,-104102.28571428571
8499.1,-104105.71428571429
8501.1,-104075.57142857142
8503.1,-104061.71428571429
8505.1,-104106.0
8507.1,-104177.71428571426
8509.1,-104209.85714285713
8511.1,-104187.57142857142
8513.1,-104160.85714285714
8515.1,-104171.28571428572
8517.1,-104199.57142857143
8519.1,-104201.85714285714
8521.1,-104171.85714285713
8523.1,-104141.71428571428
8525.1,-104137.71428571429
8527.1,-104158.85714285713
8529.1,-104184.85714285713
8531.1,-104194.14285714286
8533.1,-104185.42857142858
8535.1,-104187.85714285713
8537.1,-104227.42857142857
8539.1,-104285.99999999999
8541.1,-104321.14285714284
8543.1,-104324.14285714286
8545.1,-104329.71428571429
8547.1,-104369.0
8549.1,-104429.0
8551.1,-104468.71428571428
8553.1,-104468.57142857142
8555.1,-104455.28571428571
8557.1,-104467.28571428571
8559.1,-104503.57142857143
8561.1,-104528.71428571429
8563.08,-104526.14285714286
8565.05,-104524.42857142855
8567.03,-104561.57142857142
8569.0,-104635.57142857142
8571.0,-104704.0
8573.0,-104736.85714285714
8575.0,-104749.28571428571
8577.0,-104771.2857142857
8579.0,-104805.57142857142
8581.0,-104833.42857142858
8583.0,-104841.0
8585.0,-104832.2857142857
8587.0,-104830.71428571428
8589.0,-104859.42857142857
8591.0,-104906.14285714286
8593.0,-104928.71428571428
8595.0,-104911.85714285713
8597.0,-104890.2857142857
8599.0,-104901.71428571428
8601.0,-104938.71428571428
8603.0,-104963.71428571428
8605.0,-104959.85714285713
8607.0,-104951.99999999999
8609.0,-104969.99999999999
8611.0,-105006.42857142855
8613.0,-105026.42857142857
8615.0,-105010.71428571429
8617.0,-104974.85714285713
8619.0,-104952.42857142855
8621.0,-104965.42857142857
8623.0,-105001.42857142855
8625.0,-105022.42857142855
8627.0,-105012.99999999999
8629.0,-105006.14285714286
8631.0,-105034.57142857143
8633.0,-105073.57142857142
8635.0,-105070.5714285714
8637.0,-105022.71428571428
8639.0,-104985.42857142855
8641.0,-105000.71428571429
8642.98,-105045.42857142857
8644.95,-105065.42857142857
8646.93,-105045.42857142858
8648.9,-105025.85714285714
8650.9,-105045.42857142858
8652.9,-105088.71428571429
8654.9,-105108.14285714286
8656.9,-105089.57142857142
8658.9,-105069.14285714286
8660.9,-105082.99999999999
8662.9,-105120.71428571426
8664.9,-105144.42857142855
8666.9,-105142.14285714284
8668.9,-105139.85714285714
8670.9,-105159.71428571429
8672.9,-105189.85714285714
8674.9,-105208.0
8676.9,-105214.5714285714
8678.9,-105221.99999999999
8680.9,-105233.14285714286
8682.9,-105249.42857142855
8684.9,-105277.14285714284
8686.9,-105305.99999999999
8688.9,-105311.71428571428
8690.9,-105296.28571428571
8692.9,-105292.57142857142
8694.9,-105308.14285714286
8696.9,-105308.71428571429
8698.9,-105276.57142857142
8700.9,-105243.71428571428
8702.9,-105245.28571428571
8704.9,-105274.57142857142
8706.9,-105299.0
8708.9,-105293.85714285714
8710.9,-105257.0
8712.9,-105215.71428571428
8714.9,-105209.42857142857
8716.9,-105241.42857142857
8718.9,-105267.57142857142
8720.9,-105259.57142857142
8722.88,-105258.28571428571
8724.85,-105316.14285714287
8726.83,-105404.28571428571
8728.8,-105441.71428571429
8730.8,-105409.71428571428
8732.8,-105367.85714285713
8734.8,-105360.71428571426
8736.8,-105370.85714285713
8738.8,-105366.99999999999
8740.8,-105346.71428571429
8742.8,-105329.57142857142
8744.8,-105334.14285714284
8746.8,-105362.42857142855
8748.8,-105394.42857142855
8750.8,-105401.0
8752.8,-105373.71428571426
8754.8,-105345.2857142857
8756.8,-105355.42857142858
8758.8,-105393.85714285714
8760.8,-105416.71428571428
8762.8,-105421.2857142857
8764.8,-105447.42857142855
8766.8,-105505.0
8768.8,-105559.57142857142
8770.8,-105585.71428571429
8772.8,-105584.28571428571
8774.8,-105559.42857142855
8776.8,-105520.85714285713
8778.8,-105494.99999999997
8780.8,-105496.99999999999
8782.8,-105504.42857142855
8784.8,-105490.71428571428
8786.8,-105470.85714285713
8788.8,-105474.57142857142
8790.8,-105491.85714285714
8792.8,-105493.57142857142
8794.8,-105480.14285714286
8796.8,-105459.85714285714
8798.8,-105423.0
8800.8,-105379.71428571428
8802.78,-105364.85714285713
8804.75,-105375.57142857142
8806.73,-105369.0
8808.7,-105340.0
8810.7,-105333.85714285714
8812.7,-105370.85714285713
8814.7,-105412.99999999999
8816.7,-105420.85714285713
8818.7,-105408.99999999999
8820.7,-105425.57142857142
8822.7,-105488.71428571429
8824.7,-105566.0
8826.7,-105619.14285714284
8828.7,-105650.99999999999
8830.7,-105692.42857142857
8832.7,-105749.14285714284
8834.7,-105780.85714285713
8836.7,-105751.71428571429
8838.7,-105688.0
8840.7,-105649.42857142858
8842.7,-105653.42857142857
8844.7,-105670.42857142857
8846.7,-105682.14285714286
8848.7,-105698.71428571429
8850.7,-105726.42857142857
8852.7,-105756.85714285713
8854.7,-105785.42857142857
8856.7,-105807.14285714284
8858.7,-105805.14285714286
8860.7,-105774.0
8862.7,-105743.14285714287
8864.7,-105744.28571428571
8866.7,-105765.57142857142
8868.7,-105770.28571428571
8870.7,-105755.85714285713
8872.7,-105762.2857142857
8874.7,-105817.85714285713
8876.7,-105899.85714285716
8878.7,-105959.42857142857
8880.7,-105977.28571428571
8882.68,-105983.14285714286
8884.65,-106017.42857142857
8886.63,-106073.0
8888.6,-106089.85714285714
8890.6,-106019.0
8892.6,-105876.85714285714
8894.6,-105708.99999999999
8896.6,-105512.57142857142
8898.6,-105232.99999999999
8900.6,-104846.42857142855
8902.6,-104408.71428571429
8904.6,-104005.28571428571
8906.6,-103679.14285714286
8908.6,-103433.71428571428
8910.6,-103288.57142857142
8912.6,-103295.85714285713
8914.6,-103495.71428571429
8916.6,-103874.42857142857
8918.6,-104372.42857142855
8920.6,-104915.57142857142
8922.6,-105435.0
8924.6,-105876.0
8926.6,-106208.28571428571
8928.6,-106423.71428571428
8930.6,-106519.14285714286
8932.6,-106494.28571428571
8934.6,-106382.0
8936.6,-106255.57142857143
8938.6,-106170.71428571428
8940.6,-106113.42857142855
8942.6,-106040.14285714286
8944.6,-105954.14285714286
8946.6,-105904.28571428572
8948.6,-105913.57142857142
8950.6,-105944.14285714286
8952.6,-105946.14285714284
8954.6,-105921.14285714284
8956.6,-105914.71428571429
8958.6,-105946.28571428571
8960.6,-105978.14285714284
8962.58,-105967.5714285714
8964.55,-105924.0
8966.53,-105896.85714285713
8968.5,-105916.71428571428
8970.5,-105957.99999999999
8972.5,-105968.99999999999
8974.5,-105939.28571428571
8976.5,-105913.28571428571
8978.5,-105929.14285714286
8980.5,-105970.42857142858
8982.5,-105992.14285714286
8984.5,-105977.85714285714
8986.5,-105957.42857142857
8988.5,-105967.42857142857
8990.5,-106004.99999999999
8992.5,-106032.57142857142
8994.5,-106024.0
8996.5,-105992.42857142855
8998.5,-105973.0
9000.5,-105987.0
9002.5,-106017.57142857142
9004.5,-106023.99999999999
9006.5,-105996.85714285713
9008.5,-105981.14285714286
9010.5,-106017.14285714284
9012.5,-106078.99999999999
9014.5,-106105.99999999999
9016.5,-106083.71428571429
9018.5,-106056.71428571428
9020.5,-106062.99999999999
9022.5,-106086.42857142857
9024.5,-106083.28571428571
9026.5,-106040.71428571429
9028.5,-105997.71428571429
9030.5,-106000.99999999999
9032.5,-106046.57142857142
9034.5,-106084.0
9036.5,-106082.28571428572
9038.5,-106067.42857142858
9040.5,-106078.99999999999
9042.48,-106116.57142857142
9044.45,-106146.42857142858
9046.43,-106144.85714285712
9048.4,-106119.14285714284
9050.4,-106096.14285714284
9052.4,-106090.0
9054.4,-106080.57142857142
9056.4,-106033.42857142857
9058.4,-105949.28571428571
9060.4,-105872.14285714284
9062.4,-105838.57142857142
9064.4,-105835.85714285713
9066.4,-105826.71428571426
9068.4,-105799.71428571429
9070.4,-105777.85714285713
9072.4,-105782.28571428571
9074.4,-105806.42857142857
9076.4,-105820.42857142855
9078.4,-105794.99999999999
9080.4,-105734.71428571428
9082.4,-105687.42857142857
9084.4,-105689.99999999999
9086.4,-105711.71428571428
9088.4,-105696.42857142857
9090.4,-105653.14285714284
9092.4,-105644.57142857142
9094.4,-105688.71428571428
9096.4,-105731.14285714286
9098.4,-105722.28571428571
9100.4,-105675.57142857142
9102.4,-105637.14285714284
9104.4,-105626.57142857142
9106.4,-105624.0
9108.4,-105601.57142857143
9110.4,-105556.57142857143
9112.4,-105517.42857142857
9114.4,-105515.57142857142
9116.4,-105545.14285714286
9118.4,-105562.42857142857
9120.4,-105539.28571428571
9122.38,-105501.99999999999
9124.35,-105495.14285714286
9126.33,-105519.57142857142
9128.3,-105536.42857142855
9130.3,-105523.42857142855
9132.3,-105498.57142857142
9134.3,-105490.0
9136.3,-105506.42857142857
9138.3,-105534.42857142857
9140.3,-105546.0
9142.3,-105524.28571428571
9144.3,-105497.0
9146.3,-105513.14285714286
9148.3,-105570.14285714286
9150.3,-105605.14285714286
9152.3,-105585.28571428571
9154.3,-105561.71428571429
9156.3,-105595.71428571428
9158.3,-105667.42857142857
9160.3,-105706.14285714286
9162.3,-105690.57142857142
9164.3,-105673.57142857142
9166.3,-105701.85714285713
9168.3,-105754.71428571428
